t,EKG0,-0.0795.00E-05,-0.0791.00E-04,-0.0780.00015,-0.0770.0002,-0.0760.00025,-0.0750.0003,-0.0750.00035,-0.0740.0004,-0.0730.00045,-0.0720.0005,-0.0710.00055,-0.0710.0006,-0.070.00065,-0.0690.0007,-0.0680.00075,-0.0670.0008,-0.0660.00085,-0.0650.0009,-0.0630.00095,-0.0620.001,-0.0610.00105,-0.060.0011,-0.0590.00115,-0.0580.0012,-0.0570.00125,-0.0560.0013,-0.0550.00135,-0.0550.0014,-0.0540.00145,-0.0530.0015,-0.0530.00155,-0.0520.0016,-0.0510.00165,-0.0510.0017,-0.050.00175,-0.0490.0018,-0.0480.00185,-0.0470.0019,-0.0460.00195,-0.0440.002,-0.0430.00205,-0.0420.0021,-0.040.00215,-0.0390.0022,-0.0370.00225,-0.0360.0023,-0.0350.00235,-0.0340.0024,-0.0330.00245,-0.0330.0025,-0.0320.00255,-0.0320.0026,-0.0310.00265,-0.030.0027,-0.0290.00275,-0.0280.0028,-0.0280.00285,-0.0270.0029,-0.0260.00295,-0.0250.003,-0.0240.00305,-0.0240.0031,-0.0230.00315,-0.0230.0032,-0.0220.00325,-0.0210.0033,-0.020.00335,-0.020.0034,-0.0190.00345,-0.0190.0035,-0.0180.00355,-0.0180.0036,-0.0180.00365,-0.0180.0037,-0.0170.00375,-0.0170.0038,-0.0160.00385,-0.0150.0039,-0.0150.00395,-0.0140.004,-0.0140.00405,-0.0130.0041,-0.0130.00415,-0.0130.0042,-0.0120.00425,-0.0120.0043,-0.0110.00435,-0.0110.0044,-0.010.00445,-0.010.0045,-0.0090.00455,-0.0090.0046,-0.0080.00465,-0.0080.0047,-0.0080.00475,-0.0070.0048,-0.0070.00485,-0.0070.0049,-0.0070.00495,-0.0060.005,-0.0060.00505,-0.0050.0051,-0.0050.005149999,-0.0040.005199999,-0.0040.005249999,-0.0040.005299999,-0.0040.005349999,-0.0040.005399999,-0.0030.005449999,-0.0030.005499999,-0.0030.005549999,-0.0030.005599999,-0.0030.005649999,-0.0020.005699999,-0.0020.005749999,-0.0020.005799999,-0.0010.005849999,-0.0010.005899999,-0.0010.005949999,00.005999999,00.006049999,00.006099999,00.006149999,00.006199999,00.006249999,00.006299999,00.006349999,00.006399999,0.0010.006449999,0.0010.006499999,0.0010.006549999,0.0010.006599999,0.0010.006649999,0.0010.006699999,0.0020.006749999,0.0020.006799999,0.0020.006849999,0.0020.006899999,0.0020.006949999,0.0020.006999999,0.0020.007049999,0.0020.007099999,0.0030.007149999,0.0030.007199999,0.0030.007249999,0.0030.007299999,0.0030.007349999,0.0030.007399999,0.0030.007449999,0.0030.007499999,0.0030.007549999,0.0020.007599999,0.0020.007649999,0.0020.007699999,0.0020.007749999,0.0020.007799999,0.0020.007849999,0.0020.007899999,0.0020.007949999,0.0020.007999999,0.0010.008049999,0.0010.008099999,0.0010.008149999,0.0010.008199999,0.0010.008249999,0.0010.008299999,0.0010.008349999,0.0010.008399999,0.0020.008449999,0.0020.008499999,0.0020.008549999,0.0020.008599999,0.0020.008649999,0.0020.008699999,0.0020.008749999,0.0010.008799999,0.0010.008849999,0.0010.008899999,0.0010.008949999,0.0010.008999999,0.0010.009049999,0.0010.009099999,0.0010.009149999,00.009199999,00.009249999,00.009299999,00.009349999,-0.0010.009399999,-0.0010.009449999,-0.0010.009499999,-0.0020.009549999,-0.0020.009599999,-0.0020.009649999,-0.0030.009699999,-0.0030.009749999,-0.0030.009799999,-0.0030.009849999,-0.0030.009899999,-0.0020.009949999,-0.0020.009999999,-0.0020.010049999,-0.0020.010099999,-0.0020.010149999,-0.0020.010199999,-0.0020.010249999,-0.0020.010299999,-0.0020.010349999,-0.0020.010399999,-0.0020.010449999,-0.0030.010499999,-0.0030.010549999,-0.0030.010599999,-0.0030.010649999,-0.0030.010699999,-0.0030.010749999,-0.0030.010799999,-0.0030.010849999,-0.0030.010899999,-0.0030.010949999,-0.0030.010999999,-0.0030.011049999,-0.0030.011099999,-0.0030.011149999,-0.0030.011199999,-0.0040.011249999,-0.0040.011299999,-0.0040.011349999,-0.0040.011399999,-0.0050.011449999,-0.0050.011499999,-0.0050.011549999,-0.0060.011599999,-0.0060.011649999,-0.0060.011699999,-0.0070.011749999,-0.0070.011799999,-0.0070.011849999,-0.0070.011899999,-0.0080.011949999,-0.0080.011999999,-0.0080.012049999,-0.0080.012099999,-0.0080.012149999,-0.0080.012199999,-0.0080.012249999,-0.0090.012299999,-0.0090.012349999,-0.0090.012399999,-0.0090.012449999,-0.0090.012499999,-0.0090.012549999,-0.0090.012599999,-0.0090.012649999,-0.0090.012699999,-0.010.012749999,-0.010.012799999,-0.010.012849999,-0.0110.012899999,-0.0110.012949999,-0.0110.012999999,-0.0110.013049999,-0.0120.013099999,-0.0120.013149999,-0.0120.013199999,-0.0120.013249999,-0.0120.013299999,-0.0120.013349999,-0.0120.013399999,-0.0120.013449999,-0.0120.013499999,-0.0120.013549999,-0.0120.013599999,-0.0120.013649999,-0.0120.013699999,-0.0120.013749999,-0.0120.013799999,-0.0110.013849999,-0.0110.013899999,-0.0110.013949999,-0.0110.013999999,-0.010.014049999,-0.010.014099999,-0.010.014149999,-0.010.014199999,-0.010.014249999,-0.010.014299999,-0.010.014349999,-0.010.014399999,-0.010.014449999,-0.0090.014499999,-0.0090.014549999,-0.0090.014599999,-0.0090.014649999,-0.0080.014699999,-0.0080.014749999,-0.0080.014799999,-0.0080.014849999,-0.0080.014899999,-0.0080.014949999,-0.0080.014999999,-0.0080.015049999,-0.0080.015099999,-0.0070.015149999,-0.0070.015199999,-0.0070.015249999,-0.0070.015299999,-0.0060.015349998,-0.0060.015399998,-0.0060.015449998,-0.0050.015499998,-0.0050.015549998,-0.0040.015599998,-0.0040.015649998,-0.0040.015699998,-0.0030.015749998,-0.0030.015799998,-0.0030.015849998,-0.0030.015899998,-0.0030.015949998,-0.0030.015999998,-0.0030.016049998,-0.0020.016099998,-0.0020.016149998,-0.0020.016199998,-0.0020.016249998,-0.0020.016299998,-0.0020.016349998,-0.0020.016399998,-0.0010.016449998,-0.0010.016499998,-0.0010.016549998,00.016599998,00.016649998,0.0010.016699998,0.0010.016749998,0.0010.016799998,0.0020.016849998,0.0020.016899998,0.0020.016949998,0.0030.016999998,0.0030.017049998,0.0030.017099998,0.0040.017149998,0.0040.017199998,0.0050.017249998,0.0050.017299998,0.0060.017349998,0.0060.017399998,0.0060.017449998,0.0070.017499998,0.0070.017549998,0.0070.017599998,0.0080.017649998,0.0080.017699998,0.0080.017749998,0.0090.017799998,0.0090.017849998,0.010.017899998,0.010.017949998,0.0110.017999998,0.0110.018049998,0.0120.018099998,0.0120.018149998,0.0130.018199998,0.0130.018249998,0.0140.018299998,0.0140.018349998,0.0150.018399998,0.0150.018449998,0.0160.018499998,0.0160.018549998,0.0160.018599998,0.0170.018649998,0.0170.018699998,0.0180.018749998,0.0180.018799998,0.0180.018849998,0.0190.018899998,0.0190.018949998,0.0190.018999998,0.020.019049998,0.020.019099998,0.0210.019149998,0.0210.019199998,0.0220.019249998,0.0220.019299998,0.0220.019349998,0.0220.019399998,0.0230.019449998,0.0230.019499998,0.0230.019549998,0.0230.019599998,0.0240.019649998,0.0240.019699998,0.0250.019749998,0.0250.019799998,0.0260.019849998,0.0260.019899998,0.0270.019949998,0.0270.019999998,0.0270.020049998,0.0280.020099998,0.0280.020149998,0.0280.020199998,0.0280.020249998,0.0280.020299998,0.0280.020349998,0.0280.020399998,0.0280.020449998,0.0280.020499998,0.0280.020549998,0.0290.020599998,0.0290.020649998,0.0290.020699998,0.0290.020749998,0.0290.020799998,0.0290.020849998,0.0290.020899998,0.0290.020949998,0.030.020999998,0.030.021049998,0.030.021099998,0.030.021149998,0.030.021199998,0.030.021249998,0.030.021299998,0.030.021349998,0.030.021399998,0.0310.021449998,0.0310.021499998,0.0310.021549998,0.0310.021599998,0.0310.021649998,0.0320.021699998,0.0320.021749998,0.0320.021799998,0.0320.021849998,0.0320.021899998,0.0320.021949998,0.0320.021999998,0.0320.022049998,0.0320.022099998,0.0320.022149998,0.0320.022199998,0.0320.022249998,0.0320.022299998,0.0320.022349998,0.0330.022399998,0.0330.022449998,0.0330.022499998,0.0330.022549998,0.0330.022599998,0.0320.022649998,0.0320.022699998,0.0320.022749998,0.0320.022799998,0.0310.022849998,0.0310.022899998,0.0310.022949998,0.0320.022999998,0.0320.023049998,0.0320.023099998,0.0320.023149998,0.0320.023199998,0.0320.023249998,0.0320.023299998,0.0320.023349998,0.0320.023399998,0.0320.023449998,0.0320.023499998,0.0310.023549998,0.0310.023599998,0.0310.023649998,0.0310.023699998,0.030.023749998,0.030.023799998,0.030.023849998,0.0290.023899998,0.0290.023949998,0.0290.023999998,0.0290.024049998,0.0290.024099998,0.0290.024149998,0.0290.024199998,0.0290.024249998,0.0290.024299998,0.0290.024349998,0.0280.024399998,0.0280.024449998,0.0280.024499998,0.0280.024549998,0.0270.024599998,0.0270.024649998,0.0270.024699998,0.0270.024749998,0.0270.024799998,0.0260.024849998,0.0260.024899998,0.0260.024949998,0.0260.024999998,0.0260.025049998,0.0250.025099998,0.0250.025149998,0.0250.025199998,0.0250.025249998,0.0240.025299998,0.0240.025349998,0.0230.025399998,0.0230.025449998,0.0220.025499998,0.0220.025549997,0.0210.025599997,0.0210.025649997,0.0210.025699997,0.0210.025749997,0.0210.025799997,0.0210.025849997,0.0210.025899997,0.020.025949997,0.020.025999997,0.020.026049997,0.020.026099997,0.020.026149997,0.0190.026199997,0.0190.026249997,0.0190.026299997,0.0190.026349997,0.0180.026399997,0.0180.026449997,0.0180.026499997,0.0180.026549997,0.0170.026599997,0.0170.026649997,0.0170.026699997,0.0170.026749997,0.0170.026799997,0.0170.026849997,0.0160.026899997,0.0160.026949997,0.0160.026999997,0.0150.027049997,0.0150.027099997,0.0150.027149997,0.0140.027199997,0.0140.027249997,0.0140.027299997,0.0130.027349997,0.0130.027399997,0.0120.027449997,0.0120.027499997,0.0110.027549997,0.0110.027599997,0.010.027649997,0.010.027699997,0.010.027749997,0.010.027799997,0.0090.027849997,0.0090.027899997,0.0090.027949997,0.0090.027999997,0.0080.028049997,0.0080.028099997,0.0080.028149997,0.0070.028199997,0.0070.028249997,0.0060.028299997,0.0060.028349997,0.0060.028399997,0.0050.028449997,0.0050.028499997,0.0050.028549997,0.0050.028599997,0.0050.028649997,0.0050.028699997,0.0050.028749997,0.0050.028799997,0.0050.028849997,0.0050.028899997,0.0050.028949997,0.0050.028999997,0.0050.029049997,0.0050.029099997,0.0050.029149997,0.0050.029199997,0.0050.029249997,0.0040.029299997,0.0040.029349997,0.0040.029399997,0.0040.029449997,0.0040.029499997,0.0040.029549997,0.0050.029599997,0.0050.029649997,0.0050.029699997,0.0050.029749997,0.0050.029799997,0.0050.029849997,0.0050.029899997,0.0050.029949997,0.0050.029999997,0.0050.030049997,0.0050.030099997,0.0060.030149997,0.0060.030199997,0.0060.030249997,0.0060.030299997,0.0060.030349997,0.0060.030399997,0.0060.030449997,0.0060.030499997,0.0070.030549997,0.0070.030599997,0.0070.030649997,0.0070.030699997,0.0070.030749997,0.0070.030799997,0.0070.030849997,0.0070.030899997,0.0070.030949997,0.0070.030999997,0.0070.031049997,0.0070.031099997,0.0080.031149997,0.0080.031199997,0.0080.031249997,0.0090.031299997,0.0090.031349997,0.0090.031399997,0.010.031449997,0.010.031499997,0.010.031549997,0.010.031599997,0.010.031649997,0.010.031699997,0.0110.031749997,0.0110.031799997,0.0110.031849997,0.0110.031899997,0.0110.031949997,0.0110.031999997,0.0120.032049997,0.0120.032099997,0.0120.032149997,0.0120.032199997,0.0130.032249997,0.0130.032299997,0.0130.032349997,0.0130.032399997,0.0130.032449997,0.0130.032499997,0.0130.032549997,0.0140.032599997,0.0140.032649997,0.0140.032699997,0.0150.032749997,0.0150.032799997,0.0160.032849997,0.0170.032899997,0.0170.032949997,0.0180.032999997,0.0180.033049997,0.0180.033099997,0.0180.033149997,0.0190.033199997,0.0190.033249997,0.0190.033299997,0.020.033349997,0.020.033399997,0.0210.033449997,0.0210.033499997,0.0220.033549997,0.0220.033599997,0.0220.033649997,0.0220.033699997,0.0220.033749997,0.0220.033799997,0.0230.033849997,0.0230.033899997,0.0230.033949997,0.0240.033999997,0.0240.034049997,0.0250.034099997,0.0250.034149997,0.0250.034199997,0.0260.034249997,0.0260.034299997,0.0270.034349997,0.0270.034399997,0.0280.034449997,0.0280.034499997,0.0280.034549997,0.0280.034599997,0.0290.034649997,0.0290.034699997,0.0290.034749997,0.030.034799997,0.030.034849997,0.0310.034899997,0.0310.034949997,0.0320.034999997,0.0330.035049997,0.0330.035099997,0.0340.035149997,0.0340.035199997,0.0350.035249997,0.0350.035299997,0.0360.035349997,0.0360.035399997,0.0370.035449997,0.0370.035499997,0.0380.035549997,0.0380.035599997,0.0390.035649997,0.0390.035699997,0.0390.035749996,0.040.035799996,0.040.035849996,0.040.035899996,0.040.035949996,0.040.035999996,0.040.036049996,0.040.036099996,0.0410.036149996,0.0410.036199996,0.0410.036249996,0.0420.036299996,0.0420.036349996,0.0430.036399996,0.0430.036449996,0.0430.036499996,0.0430.036549996,0.0440.036599996,0.0440.036649996,0.0440.036699996,0.0440.036749996,0.0450.036799996,0.0450.036849996,0.0450.036899996,0.0450.036949996,0.0460.036999996,0.0460.037049996,0.0460.037099996,0.0460.037149996,0.0460.037199996,0.0460.037249996,0.0460.037299996,0.0460.037349996,0.0460.037399996,0.0460.037449996,0.0470.037499996,0.0470.037549996,0.0470.037599996,0.0480.037649996,0.0480.037699996,0.0480.037749996,0.0480.037799996,0.0480.037849996,0.0480.037899996,0.0480.037949996,0.0480.037999996,0.0480.038049996,0.0480.038099996,0.0480.038149996,0.0480.038199996,0.0480.038249996,0.0480.038299996,0.0480.038349996,0.0480.038399996,0.0480.038449996,0.0480.038499996,0.0480.038549996,0.0480.038599996,0.0480.038649996,0.0480.038699996,0.0470.038749996,0.0470.038799996,0.0470.038849996,0.0470.038899996,0.0470.038949996,0.0470.038999996,0.0470.039049996,0.0460.039099996,0.0460.039149996,0.0460.039199996,0.0460.039249996,0.0460.039299996,0.0460.039349996,0.0470.039399996,0.0470.039449996,0.0470.039499996,0.0470.039549996,0.0470.039599996,0.0470.039649996,0.0470.039699996,0.0460.039749996,0.0460.039799996,0.0460.039849996,0.0450.039899996,0.0450.039949996,0.0450.039999996,0.0450.040049996,0.0440.040099996,0.0440.040149996,0.0440.040199996,0.0440.040249996,0.0440.040299996,0.0440.040349996,0.0440.040399996,0.0440.040449996,0.0430.040499996,0.0430.040549996,0.0430.040599996,0.0430.040649996,0.0430.040699996,0.0430.040749996,0.0430.040799996,0.0430.040849996,0.0420.040899996,0.0420.040949996,0.0420.040999996,0.0420.041049996,0.0420.041099996,0.0420.041149996,0.0420.041199996,0.0420.041249996,0.0420.041299996,0.0420.041349996,0.0410.041399996,0.0410.041449996,0.0410.041499996,0.0410.041549996,0.0410.041599996,0.040.041649996,0.040.041699996,0.040.041749996,0.040.041799996,0.0390.041849996,0.0390.041899996,0.0380.041949996,0.0380.041999996,0.0370.042049996,0.0370.042099996,0.0370.042149996,0.0360.042199996,0.0360.042249996,0.0360.042299996,0.0350.042349996,0.0350.042399996,0.0340.042449996,0.0340.042499996,0.0330.042549996,0.0330.042599996,0.0330.042649996,0.0330.042699996,0.0320.042749996,0.0320.042799996,0.0320.042849996,0.0320.042899996,0.0320.042949996,0.0320.042999996,0.0320.043049996,0.0320.043099996,0.0320.043149996,0.0320.043199996,0.0320.043249996,0.0320.043299996,0.0320.043349996,0.0310.043399996,0.0310.043449996,0.0310.043499996,0.030.043549996,0.030.043599996,0.030.043649996,0.030.043699996,0.0290.043749996,0.0290.043799996,0.0290.043849996,0.0280.043899996,0.0280.043949996,0.0280.043999996,0.0280.044049996,0.0280.044099996,0.0280.044149996,0.0280.044199996,0.0280.044249996,0.0280.044299996,0.0280.044349996,0.0270.044399996,0.0270.044449996,0.0270.044499996,0.0270.044549996,0.0260.044599996,0.0260.044649996,0.0250.044699996,0.0250.044749996,0.0250.044799996,0.0250.044849996,0.0250.044899996,0.0240.044949996,0.0240.044999996,0.0240.045049996,0.0230.045099996,0.0230.045149996,0.0230.045199996,0.0230.045249996,0.0220.045299996,0.0220.045349996,0.0220.045399996,0.0220.045449996,0.0220.045499996,0.0220.045549996,0.0220.045599996,0.0220.045649996,0.0220.045699996,0.0220.045749996,0.0220.045799996,0.0220.045849996,0.0220.045899996,0.0220.045949995,0.0220.045999995,0.0230.046049995,0.0230.046099995,0.0230.046149995,0.0230.046199995,0.0230.046249995,0.0230.046299995,0.0230.046349995,0.0230.046399995,0.0220.046449995,0.0220.046499995,0.0220.046549995,0.0220.046599995,0.0220.046649995,0.0220.046699995,0.0220.046749995,0.0220.046799995,0.0220.046849995,0.0220.046899995,0.0220.046949995,0.0220.046999995,0.0230.047049995,0.0230.047099995,0.0230.047149995,0.0230.047199995,0.0230.047249995,0.0230.047299995,0.0230.047349995,0.0230.047399995,0.0230.047449995,0.0230.047499995,0.0230.047549995,0.0240.047599995,0.0240.047649995,0.0240.047699995,0.0240.047749995,0.0250.047799995,0.0250.047849995,0.0250.047899995,0.0260.047949995,0.0260.047999995,0.0270.048049995,0.0270.048099995,0.0270.048149995,0.0280.048199995,0.0280.048249995,0.0280.048299995,0.0290.048349995,0.0290.048399995,0.0290.048449995,0.030.048499995,0.030.048549995,0.030.048599995,0.030.048649995,0.0310.048699995,0.0310.048749995,0.0320.048799995,0.0320.048849995,0.0320.048899995,0.0320.048949995,0.0320.048999995,0.0320.049049995,0.0320.049099995,0.0320.049149995,0.0330.049199995,0.0330.049249995,0.0330.049299995,0.0330.049349995,0.0340.049399995,0.0340.049449995,0.0350.049499995,0.0350.049549995,0.0350.049599995,0.0360.049649995,0.0360.049699995,0.0370.049749995,0.0370.049799995,0.0380.049849995,0.0380.049899995,0.0390.049949995,0.0390.049999995,0.040.050049995,0.040.050099995,0.0410.050149995,0.0410.050199995,0.0420.050249995,0.0420.050299995,0.0430.050349995,0.0430.050399995,0.0440.050449995,0.0440.050499995,0.0440.050549995,0.0440.050599995,0.0440.050649995,0.0450.050699995,0.0450.050749995,0.0450.050799995,0.0450.050849995,0.0450.050899995,0.0450.050949995,0.0450.050999995,0.0460.051049995,0.0470.051099995,0.0470.051149995,0.0480.051199995,0.0480.051249995,0.0480.051299995,0.0490.051349995,0.0490.051399995,0.050.051449995,0.050.051499995,0.0510.051549995,0.0510.051599995,0.0520.051649995,0.0520.051699995,0.0530.051749995,0.0530.051799995,0.0540.051849995,0.0550.051899995,0.0550.051949995,0.0550.051999995,0.0560.052049995,0.0560.052099995,0.0570.052149995,0.0570.052199995,0.0580.052249995,0.0580.052299995,0.0580.052349995,0.0580.052399995,0.0590.052449995,0.0590.052499995,0.0590.052549995,0.060.052599995,0.060.052649995,0.0610.052699995,0.0610.052749995,0.0620.052799995,0.0620.052849995,0.0630.052899995,0.0630.052949995,0.0630.052999995,0.0630.053049995,0.0640.053099995,0.0640.053149995,0.0640.053199995,0.0640.053249995,0.0650.053299995,0.0650.053349995,0.0650.053399995,0.0650.053449995,0.0650.053499995,0.0650.053549995,0.0650.053599995,0.0660.053649995,0.0660.053699995,0.0660.053749995,0.0660.053799995,0.0660.053849995,0.0660.053899995,0.0650.053949995,0.0650.053999995,0.0650.054049995,0.0650.054099995,0.0650.054149995,0.0650.054199995,0.0650.054249995,0.0650.054299995,0.0660.054349995,0.0660.054399995,0.0660.054449995,0.0660.054499995,0.0670.054549995,0.0670.054599995,0.0670.054649995,0.0670.054699995,0.0680.054749995,0.0680.054799995,0.0680.054849995,0.0680.054899995,0.0680.054949995,0.0680.054999995,0.0680.055049995,0.0680.055099995,0.0680.055149995,0.0680.055199995,0.0680.055249995,0.0680.055299995,0.0680.055349995,0.0680.055399995,0.0680.055449995,0.0680.055499995,0.0680.055549995,0.0680.055599995,0.0680.055649995,0.0680.055699995,0.0690.055749995,0.0690.055799995,0.0690.055849995,0.070.055899995,0.070.055949995,0.070.055999995,0.070.056049995,0.070.056099995,0.070.056149994,0.070.056199994,0.070.056249994,0.070.056299994,0.070.056349994,0.070.056399994,0.070.056449994,0.070.056499994,0.070.056549994,0.070.056599994,0.0710.056649994,0.0710.056699994,0.0710.056749994,0.0710.056799994,0.0710.056849994,0.0710.056899994,0.0710.056949994,0.0710.056999994,0.0710.057049994,0.0710.057099994,0.0710.057149994,0.0720.057199994,0.0720.057249994,0.0720.057299994,0.0720.057349994,0.0720.057399994,0.0720.057449994,0.0720.057499994,0.0720.057549994,0.0720.057599994,0.0720.057649994,0.0720.057699994,0.0720.057749994,0.0720.057799994,0.0720.057849994,0.0720.057899994,0.0720.057949994,0.0730.057999994,0.0730.058049994,0.0730.058099994,0.0730.058149994,0.0740.058199994,0.0740.058249994,0.0740.058299994,0.0750.058349994,0.0750.058399994,0.0750.058449994,0.0750.058499994,0.0750.058549994,0.0750.058599994,0.0750.058649994,0.0750.058699994,0.0740.058749994,0.0740.058799994,0.0750.058849994,0.0750.058899994,0.0750.058949994,0.0750.058999994,0.0750.059049994,0.0750.059099994,0.0750.059149994,0.0760.059199994,0.0760.059249994,0.0760.059299994,0.0770.059349994,0.0770.059399994,0.0770.059449994,0.0770.059499994,0.0770.059549994,0.0770.059599994,0.0770.059649994,0.0770.059699994,0.0770.059749994,0.0770.059799994,0.0770.059849994,0.0770.059899994,0.0770.059949994,0.0770.059999994,0.0770.060049994,0.0770.060099994,0.0770.060149994,0.0770.060199994,0.0770.060249994,0.0770.060299994,0.0770.060349994,0.0770.060399994,0.0780.060449994,0.0780.060499994,0.0780.060549994,0.0780.060599994,0.0780.060649994,0.0780.060699994,0.0770.060749994,0.0770.060799994,0.0770.060849994,0.0770.060899994,0.0770.060949994,0.0770.060999994,0.0770.061049994,0.0770.061099994,0.0780.061149994,0.0780.061199994,0.0780.061249994,0.0780.061299994,0.0780.061349994,0.0780.061399994,0.0790.061449994,0.0790.061499994,0.0790.061549994,0.080.061599994,0.080.061649994,0.0810.061699994,0.0810.061749994,0.0820.061799994,0.0820.061849994,0.0830.061899994,0.0830.061949994,0.0840.061999994,0.0840.062049994,0.0840.062099994,0.0850.062149994,0.0850.062199994,0.0850.062249994,0.0860.062299994,0.0870.062349994,0.0870.062399994,0.0880.062449994,0.0880.062499994,0.0890.062549994,0.090.062599994,0.090.062649994,0.0910.062699994,0.0920.062749994,0.0930.062799994,0.0930.062849994,0.0940.062899994,0.0950.062949994,0.0950.062999994,0.0960.063049994,0.0960.063099994,0.0970.063149994,0.0980.063199994,0.0980.063249994,0.0990.063299994,0.10.063349994,0.1010.063399994,0.1020.063449994,0.1030.063499994,0.1040.063549994,0.1050.063599994,0.1060.063649994,0.1070.063699994,0.1080.063749994,0.110.063799994,0.1110.063849994,0.1120.063899994,0.1130.063949994,0.1150.063999994,0.1160.064049994,0.1170.064099994,0.1190.064149994,0.120.064199994,0.1210.064249994,0.1220.064299994,0.1240.064349994,0.1250.064399994,0.1260.064449994,0.1280.064499994,0.1290.064549994,0.1310.064599994,0.1320.064649994,0.1340.064699994,0.1350.064749994,0.1360.064799994,0.1370.064849994,0.1380.064899994,0.1380.064949994,0.1390.064999994,0.140.065049994,0.1410.065099994,0.1420.065149994,0.1440.065199994,0.1450.065249994,0.1470.065299994,0.1490.065349994,0.150.065399994,0.1520.065449994,0.1540.065499994,0.1550.065549994,0.1570.065599994,0.1580.065649994,0.160.065699994,0.1610.065749994,0.1620.065799994,0.1630.065849994,0.1640.065899994,0.1660.065949994,0.1670.065999994,0.1680.066049994,0.1690.066099994,0.170.066149994,0.1720.066199994,0.1730.066249994,0.1740.066299994,0.1750.066349993,0.1770.066399993,0.1780.066449993,0.1790.066499993,0.180.066549993,0.1820.066599993,0.1830.066649993,0.1840.066699993,0.1850.066749993,0.1860.066799993,0.1870.066849993,0.1880.066899993,0.1890.066949993,0.190.066999993,0.1910.067049993,0.1930.067099993,0.1940.067149993,0.1950.067199993,0.1960.067249993,0.1960.067299993,0.1970.067349993,0.1980.067399993,0.1980.067449993,0.1990.067499993,0.1990.067549993,0.20.067599993,0.2010.067649993,0.2010.067699993,0.2020.067749993,0.2030.067799993,0.2050.067849993,0.2060.067899993,0.2070.067949993,0.2070.067999993,0.2080.068049993,0.2090.068099993,0.2090.068149993,0.210.068199993,0.210.068249993,0.210.068299993,0.2110.068349993,0.2120.068399993,0.2120.068449993,0.2130.068499993,0.2140.068549993,0.2150.068599993,0.2160.068649993,0.2170.068699993,0.2170.068749993,0.2180.068799993,0.2180.068849993,0.2190.068899993,0.2190.068949993,0.2190.068999993,0.220.069049993,0.220.069099993,0.220.069149993,0.2210.069199993,0.2210.069249993,0.2220.069299993,0.2220.069349993,0.2230.069399993,0.2230.069449993,0.2230.069499993,0.2230.069549993,0.2230.069599993,0.2240.069649993,0.2240.069699993,0.2240.069749993,0.2240.069799993,0.2240.069849993,0.2250.069899993,0.2250.069949993,0.2250.069999993,0.2260.070049993,0.2260.070099993,0.2260.070149993,0.2270.070199993,0.2270.070249993,0.2270.070299993,0.2260.070349993,0.2260.070399993,0.2260.070449993,0.2260.070499993,0.2260.070549993,0.2260.070599993,0.2260.070649993,0.2260.070699993,0.2260.070749993,0.2260.070799993,0.2260.070849993,0.2260.070899993,0.2260.070949993,0.2250.070999993,0.2250.071049993,0.2250.071099993,0.2250.071149993,0.2240.071199993,0.2240.071249993,0.2240.071299993,0.2240.071349993,0.2240.071399993,0.2240.071449993,0.2240.071499993,0.2240.071549993,0.2240.071599993,0.2230.071649993,0.2230.071699993,0.2230.071749993,0.2230.071799993,0.2230.071849993,0.2230.071899993,0.2220.071949993,0.2220.071999993,0.2220.072049993,0.2220.072099993,0.2220.072149993,0.2220.072199993,0.2220.072249993,0.2210.072299993,0.2210.072349993,0.2210.072399993,0.220.072449993,0.220.072499993,0.220.072549993,0.2190.072599993,0.2190.072649993,0.2190.072699993,0.2190.072749993,0.2190.072799993,0.2190.072849993,0.2180.072899993,0.2180.072949993,0.2180.072999993,0.2170.073049993,0.2170.073099993,0.2170.073149993,0.2160.073199993,0.2160.073249993,0.2150.073299993,0.2150.073349993,0.2150.073399993,0.2150.073449993,0.2140.073499993,0.2140.073549993,0.2140.073599993,0.2140.073649993,0.2130.073699993,0.2130.073749993,0.2130.073799993,0.2120.073849993,0.2120.073899993,0.2120.073949993,0.2110.073999993,0.2110.074049993,0.2110.074099993,0.2110.074149993,0.210.074199993,0.210.074249993,0.210.074299993,0.2090.074349993,0.2090.074399993,0.2090.074449993,0.2090.074499993,0.2080.074549993,0.2080.074599993,0.2080.074649993,0.2070.074699993,0.2070.074749993,0.2070.074799993,0.2070.074849993,0.2060.074899993,0.2060.074949993,0.2060.074999993,0.2050.075049993,0.2050.075099993,0.2040.075149993,0.2040.075199993,0.2030.075249993,0.2030.075299993,0.2020.075349993,0.2020.075399993,0.2010.075449993,0.20.075499993,0.20.075549993,0.1990.075599993,0.1980.075649993,0.1980.075699993,0.1970.075749993,0.1970.075799993,0.1960.075849993,0.1960.075899993,0.1950.075949993,0.1950.075999993,0.1940.076049993,0.1940.076099993,0.1930.076149993,0.1930.076199993,0.1930.076249993,0.1920.076299993,0.1920.076349993,0.1910.076399993,0.1910.076449993,0.190.076499993,0.190.076549992,0.190.076599992,0.1890.076649992,0.1890.076699992,0.1890.076749992,0.1880.076799992,0.1880.076849992,0.1880.076899992,0.1870.076949992,0.1870.076999992,0.1860.077049992,0.1860.077099992,0.1850.077149992,0.1850.077199992,0.1840.077249992,0.1840.077299992,0.1830.077349992,0.1830.077399992,0.1830.077449992,0.1820.077499992,0.1820.077549992,0.1820.077599992,0.1810.077649992,0.1810.077699992,0.1810.077749992,0.180.077799992,0.180.077849992,0.180.077899992,0.180.077949992,0.180.077999992,0.180.078049992,0.180.078099992,0.180.078149992,0.180.078199992,0.180.078249992,0.1790.078299992,0.1790.078349992,0.1790.078399992,0.1780.078449992,0.1780.078499992,0.1780.078549992,0.1770.078599992,0.1770.078649992,0.1770.078699992,0.1760.078749992,0.1760.078799992,0.1760.078849992,0.1750.078899992,0.1750.078949992,0.1750.078999992,0.1750.079049992,0.1740.079099992,0.1740.079149992,0.1740.079199992,0.1740.079249992,0.1730.079299992,0.1730.079349992,0.1730.079399992,0.1730.079449992,0.1730.079499992,0.1730.079549992,0.1730.079599992,0.1730.079649992,0.1730.079699992,0.1720.079749992,0.1720.079799992,0.1720.079849992,0.1710.079899992,0.1710.079949992,0.1710.079999992,0.170.080049992,0.170.080099992,0.170.080149992,0.170.080199992,0.170.080249992,0.170.080299992,0.1690.080349992,0.1690.080399992,0.1690.080449992,0.1680.080499992,0.1680.080549992,0.1680.080599992,0.1680.080649992,0.1670.080699992,0.1670.080749992,0.1670.080799992,0.1660.080849992,0.1660.080899992,0.1660.080949992,0.1650.080999992,0.1650.081049992,0.1650.081099992,0.1650.081149992,0.1650.081199992,0.1650.081249992,0.1650.081299992,0.1650.081349992,0.1650.081399992,0.1650.081449992,0.1640.081499992,0.1640.081549992,0.1640.081599992,0.1640.081649992,0.1640.081699992,0.1640.081749992,0.1640.081799992,0.1640.081849992,0.1640.081899992,0.1630.081949992,0.1630.081999992,0.1630.082049992,0.1620.082099992,0.1620.082149992,0.1620.082199992,0.1610.082249992,0.1610.082299992,0.1610.082349992,0.1610.082399992,0.1610.082449992,0.1610.082499992,0.1610.082549992,0.1610.082599992,0.1610.082649992,0.1610.082699992,0.1610.082749992,0.1610.082799992,0.1610.082849992,0.1610.082899992,0.160.082949992,0.160.082999992,0.160.083049992,0.160.083099992,0.160.083149992,0.160.083199992,0.160.083249992,0.160.083299992,0.1590.083349992,0.1590.083399992,0.1590.083449992,0.1590.083499992,0.1590.083549992,0.1590.083599992,0.1590.083649992,0.1590.083699992,0.1590.083749992,0.1590.083799992,0.1590.083849992,0.1590.083899992,0.1590.083949992,0.1590.083999992,0.1590.084049992,0.1590.084099992,0.160.084149992,0.160.084199992,0.160.084249992,0.160.084299992,0.160.084349992,0.1590.084399992,0.1590.084449992,0.1590.084499992,0.1590.084549992,0.1590.084599992,0.160.084649992,0.160.084699992,0.160.084749992,0.160.084799992,0.160.084849992,0.160.084899992,0.160.084949992,0.1610.084999992,0.1610.085049992,0.1620.085099992,0.1620.085149992,0.1620.085199992,0.1620.085249992,0.1630.085299992,0.1630.085349992,0.1630.085399992,0.1640.085449992,0.1640.085499992,0.1640.085549992,0.1640.085599992,0.1640.085649992,0.1640.085699992,0.1640.085749992,0.1640.085799992,0.1640.085849992,0.1630.085899992,0.1630.085949992,0.1640.085999992,0.1640.086049992,0.1640.086099992,0.1640.086149992,0.1640.086199992,0.1640.086249992,0.1640.086299992,0.1640.086349992,0.1650.086399992,0.1650.086449992,0.1650.086499992,0.1650.086549992,0.1650.086599992,0.1650.086649992,0.1650.086699992,0.1650.086749991,0.1650.086799991,0.1640.086849991,0.1640.086899991,0.1640.086949991,0.1630.086999991,0.1630.087049991,0.1630.087099991,0.1630.087149991,0.1630.087199991,0.1630.087249991,0.1630.087299991,0.1630.087349991,0.1630.087399991,0.1630.087449991,0.1630.087499991,0.1630.087549991,0.1630.087599991,0.1620.087649991,0.1620.087699991,0.1620.087749991,0.1620.087799991,0.1620.087849991,0.1610.087899991,0.1610.087949991,0.1610.087999991,0.160.088049991,0.160.088099991,0.160.088149991,0.1590.088199991,0.1590.088249991,0.1590.088299991,0.1590.088349991,0.1590.088399991,0.1580.088449991,0.1580.088499991,0.1580.088549991,0.1580.088599991,0.1570.088649991,0.1570.088699991,0.1570.088749991,0.1560.088799991,0.1560.088849991,0.1560.088899991,0.1560.088949991,0.1560.088999991,0.1560.089049991,0.1550.089099991,0.1550.089149991,0.1550.089199991,0.1540.089249991,0.1540.089299991,0.1530.089349991,0.1530.089399991,0.1520.089449991,0.1520.089499991,0.1510.089549991,0.1510.089599991,0.1510.089649991,0.1510.089699991,0.150.089749991,0.150.089799991,0.150.089849991,0.1490.089899991,0.1490.089949991,0.1480.089999991,0.1480.090049991,0.1470.090099991,0.1470.090149991,0.1460.090199991,0.1450.090249991,0.1450.090299991,0.1440.090349991,0.1430.090399991,0.1430.090449991,0.1420.090499991,0.1420.090549991,0.1410.090599991,0.140.090649991,0.140.090699991,0.1390.090749991,0.1380.090799991,0.1370.090849991,0.1360.090899991,0.1360.090949991,0.1350.090999991,0.1340.091049991,0.1340.091099991,0.1330.091149991,0.1330.091199991,0.1320.091249991,0.1320.091299991,0.1310.091349991,0.130.091399991,0.130.091449991,0.1290.091499991,0.1280.091549991,0.1280.091599991,0.1270.091649991,0.1260.091699991,0.1250.091749991,0.1240.091799991,0.1230.091849991,0.1220.091899991,0.1210.091949991,0.120.091999991,0.120.092049991,0.1190.092099991,0.1180.092149991,0.1170.092199991,0.1160.092249991,0.1150.092299991,0.1140.092349991,0.1130.092399991,0.1130.092449991,0.1120.092499991,0.1110.092549991,0.110.092599991,0.110.092649991,0.1090.092699991,0.1080.092749991,0.1070.092799991,0.1060.092849991,0.1050.092899991,0.1040.092949991,0.1030.092999991,0.1020.093049991,0.1010.093099991,0.10.093149991,0.0990.093199991,0.0970.093249991,0.0960.093299991,0.0950.093349991,0.0940.093399991,0.0920.093449991,0.0920.093499991,0.0910.093549991,0.090.093599991,0.0890.093649991,0.0880.093699991,0.0870.093749991,0.0860.093799991,0.0850.093849991,0.0840.093899991,0.0830.093949991,0.0820.093999991,0.0810.094049991,0.080.094099991,0.0780.094149991,0.0770.094199991,0.0760.094249991,0.0750.094299991,0.0740.094349991,0.0730.094399991,0.0720.094449991,0.0710.094499991,0.0690.094549991,0.0680.094599991,0.0670.094649991,0.0650.094699991,0.0640.094749991,0.0630.094799991,0.0620.094849991,0.0610.094899991,0.060.094949991,0.0590.094999991,0.0580.095049991,0.0570.095099991,0.0560.095149991,0.0550.095199991,0.0540.095249991,0.0530.095299991,0.0520.095349991,0.050.095399991,0.0490.095449991,0.0480.095499991,0.0470.095549991,0.0460.095599991,0.0450.095649991,0.0440.095699991,0.0430.095749991,0.0420.095799991,0.0410.095849991,0.040.095899991,0.040.095949991,0.0390.095999991,0.0380.096049991,0.0370.096099991,0.0370.096149991,0.0360.096199991,0.0350.096249991,0.0340.096299991,0.0330.096349991,0.0320.096399991,0.0310.096449991,0.030.096499991,0.0290.096549991,0.0280.096599991,0.0270.096649991,0.0260.096699991,0.0250.096749991,0.0250.096799991,0.0240.096849991,0.0230.096899991,0.0220.09694999,0.0220.09699999,0.0210.09704999,0.0210.09709999,0.020.09714999,0.0190.09719999,0.0190.09724999,0.0190.09729999,0.0180.09734999,0.0180.09739999,0.0180.09744999,0.0170.09749999,0.0170.09754999,0.0170.09759999,0.0160.09764999,0.0160.09769999,0.0150.09774999,0.0150.09779999,0.0140.09784999,0.0130.09789999,0.0130.09794999,0.0120.09799999,0.0120.09804999,0.0110.09809999,0.0110.09814999,0.0110.09819999,0.0110.09824999,0.010.09829999,0.010.09834999,0.010.09839999,0.010.09844999,0.0090.09849999,0.0090.09854999,0.0090.09859999,0.0080.09864999,0.0080.09869999,0.0080.09874999,0.0070.09879999,0.0070.09884999,0.0070.09889999,0.0060.09894999,0.0060.09899999,0.0050.09904999,0.0050.09909999,0.0050.09914999,0.0040.09919999,0.0040.09924999,0.0040.09929999,0.0030.09934999,0.0030.09939999,0.0030.09944999,0.0020.09949999,0.0020.09954999,0.0010.09959999,0.0010.09964999,0.0010.09969999,00.09974999,00.09979999,-0.0010.09984999,-0.0010.09989999,-0.0010.09994999,-0.0010.09999999,-0.0020.10004999,-0.0020.10009999,-0.0020.10014999,-0.0020.10019999,-0.0020.10024999,-0.0020.10029999,-0.0030.10034999,-0.0030.10039999,-0.0030.10044999,-0.0030.10049999,-0.0030.10054999,-0.0030.10059999,-0.0030.10064999,-0.0030.10069999,-0.0030.10074999,-0.0030.10079999,-0.0030.10084999,-0.0040.10089999,-0.0030.10094999,-0.0030.10099999,-0.0030.10104999,-0.0030.10109999,-0.0030.10114999,-0.0020.10119999,-0.0020.10124999,-0.0020.10129999,-0.0020.10134999,-0.0020.10139999,-0.0020.10144999,-0.0020.10149999,-0.0010.10154999,-0.0010.10159999,-0.0010.10164999,-0.0010.10169999,-0.0010.10174999,-0.0010.10179999,00.10184999,00.10189999,00.10194999,00.10199999,00.10204999,0.0010.10209999,0.0010.10214999,0.0020.10219999,0.0020.10224999,0.0020.10229999,0.0030.10234999,0.0030.10239999,0.0030.10244999,0.0030.10249999,0.0030.10254999,0.0030.10259999,0.0030.10264999,0.0030.10269999,0.0040.10274999,0.0040.10279999,0.0040.10284999,0.0040.10289999,0.0040.10294999,0.0040.10299999,0.0050.10304999,0.0050.10309999,0.0050.10314999,0.0050.10319999,0.0050.10324999,0.0050.10329999,0.0050.10334999,0.0050.10339999,0.0060.10344999,0.0060.10349999,0.0060.10354999,0.0060.10359999,0.0060.10364999,0.0050.10369999,0.0050.10374999,0.0050.10379999,0.0050.10384999,0.0040.10389999,0.0040.10394999,0.0040.10399999,0.0040.10404999,0.0040.10409999,0.0040.10414999,0.0040.10419999,0.0040.10424999,0.0040.10429999,0.0040.10434999,0.0040.10439999,0.0040.10444999,0.0040.10449999,0.0030.10454999,0.0030.10459999,0.0030.10464999,0.0040.10469999,0.0030.10474999,0.0030.10479999,0.0030.10484999,0.0030.10489999,0.0030.10494999,0.0030.10499999,0.0030.10504999,0.0030.10509999,0.0030.10514999,0.0030.10519999,0.0020.10524999,0.0020.10529999,0.0020.10534999,0.0020.10539999,0.0020.10544999,0.0020.10549999,0.0010.10554999,0.0010.10559999,0.0010.10564999,00.10569999,00.10574999,00.10579999,-0.0010.10584999,-0.0010.10589999,-0.0010.10594999,-0.0010.10599999,-0.0020.10604999,-0.0020.10609999,-0.0020.10614999,-0.0020.10619999,-0.0020.10624999,-0.0030.10629999,-0.0030.10634999,-0.0030.10639999,-0.0030.10644999,-0.0040.10649999,-0.0040.10654999,-0.0040.10659999,-0.0040.10664999,-0.0040.10669999,-0.0050.10674999,-0.0050.10679999,-0.0050.10684999,-0.0050.10689999,-0.0050.10694999,-0.0060.10699999,-0.0060.10704999,-0.0060.10709999,-0.0070.107149989,-0.0070.107199989,-0.0070.107249989,-0.0080.107299989,-0.0090.107349989,-0.010.107399989,-0.010.107449989,-0.0110.107499989,-0.0110.107549989,-0.0120.107599989,-0.0120.107649989,-0.0130.107699989,-0.0130.107749989,-0.0140.107799989,-0.0140.107849989,-0.0150.107899989,-0.0150.107949989,-0.0150.107999989,-0.0160.108049989,-0.0160.108099989,-0.0160.108149989,-0.0170.108199989,-0.0170.108249989,-0.0170.108299989,-0.0180.108349989,-0.0180.108399989,-0.0190.108449989,-0.0190.108499989,-0.020.108549989,-0.020.108599989,-0.0210.108649989,-0.0210.108699989,-0.0220.108749989,-0.0220.108799989,-0.0220.108849989,-0.0230.108899989,-0.0230.108949989,-0.0230.108999989,-0.0230.109049989,-0.0230.109099989,-0.0240.109149989,-0.0240.109199989,-0.0240.109249989,-0.0250.109299989,-0.0250.109349989,-0.0260.109399989,-0.0260.109449989,-0.0270.109499989,-0.0280.109549989,-0.0280.109599989,-0.0290.109649989,-0.0290.109699989,-0.030.109749989,-0.0310.109799989,-0.0310.109849989,-0.0320.109899989,-0.0320.109949989,-0.0320.109999989,-0.0330.110049989,-0.0330.110099989,-0.0330.110149989,-0.0340.110199989,-0.0340.110249989,-0.0340.110299989,-0.0350.110349989,-0.0350.110399989,-0.0350.110449989,-0.0360.110499989,-0.0360.110549989,-0.0360.110599989,-0.0370.110649989,-0.0370.110699989,-0.0380.110749989,-0.0380.110799989,-0.0390.110849989,-0.0390.110899989,-0.040.110949989,-0.040.110999989,-0.0410.111049989,-0.0410.111099989,-0.0420.111149989,-0.0420.111199989,-0.0430.111249989,-0.0430.111299989,-0.0440.111349989,-0.0440.111399989,-0.0450.111449989,-0.0450.111499989,-0.0450.111549989,-0.0460.111599989,-0.0460.111649989,-0.0460.111699989,-0.0470.111749989,-0.0470.111799989,-0.0480.111849989,-0.0480.111899989,-0.0490.111949989,-0.050.111999989,-0.050.112049989,-0.0510.112099989,-0.0510.112149989,-0.0510.112199989,-0.0520.112249989,-0.0520.112299989,-0.0520.112349989,-0.0520.112399989,-0.0520.112449989,-0.0530.112499989,-0.0530.112549989,-0.0530.112599989,-0.0530.112649989,-0.0540.112699989,-0.0540.112749989,-0.0540.112799989,-0.0550.112849989,-0.0550.112899989,-0.0550.112949989,-0.0550.112999989,-0.0550.113049989,-0.0550.113099989,-0.0560.113149989,-0.0560.113199989,-0.0560.113249989,-0.0560.113299989,-0.0560.113349989,-0.0560.113399989,-0.0560.113449989,-0.0560.113499989,-0.0560.113549989,-0.0560.113599989,-0.0560.113649989,-0.0550.113699989,-0.0550.113749989,-0.0550.113799989,-0.0550.113849989,-0.0550.113899989,-0.0550.113949989,-0.0550.113999989,-0.0540.114049989,-0.0550.114099989,-0.0550.114149989,-0.0550.114199989,-0.0550.114249989,-0.0550.114299989,-0.0550.114349989,-0.0550.114399989,-0.0550.114449989,-0.0550.114499989,-0.0550.114549989,-0.0560.114599989,-0.0550.114649989,-0.0550.114699989,-0.0550.114749989,-0.0550.114799989,-0.0550.114849989,-0.0550.114899989,-0.0550.114949989,-0.0550.114999989,-0.0540.115049989,-0.0540.115099989,-0.0540.115149989,-0.0530.115199989,-0.0530.115249989,-0.0520.115299989,-0.0520.115349989,-0.0520.115399989,-0.0510.115449989,-0.0510.115499989,-0.050.115549989,-0.050.115599989,-0.0490.115649989,-0.0490.115699989,-0.0480.115749989,-0.0480.115799989,-0.0480.115849989,-0.0480.115899989,-0.0480.115949989,-0.0480.115999989,-0.0480.116049989,-0.0470.116099989,-0.0470.116149989,-0.0470.116199989,-0.0460.116249989,-0.0460.116299989,-0.0460.116349989,-0.0450.116399989,-0.0450.116449989,-0.0450.116499989,-0.0450.116549989,-0.0450.116599989,-0.0440.116649989,-0.0440.116699989,-0.0430.116749989,-0.0430.116799989,-0.0430.116849989,-0.0430.116899989,-0.0420.116949989,-0.0420.116999989,-0.0420.117049989,-0.0410.117099989,-0.0410.117149989,-0.0410.117199989,-0.040.117249989,-0.040.117299989,-0.040.117349988,-0.0390.117399988,-0.0390.117449988,-0.0380.117499988,-0.0380.117549988,-0.0380.117599988,-0.0370.117649988,-0.0370.117699988,-0.0370.117749988,-0.0370.117799988,-0.0360.117849988,-0.0360.117899988,-0.0360.117949988,-0.0350.117999988,-0.0350.118049988,-0.0350.118099988,-0.0340.118149988,-0.0340.118199988,-0.0330.118249988,-0.0330.118299988,-0.0320.118349988,-0.0320.118399988,-0.0310.118449988,-0.0310.118499988,-0.0310.118549988,-0.030.118599988,-0.030.118649988,-0.030.118699988,-0.030.118749988,-0.030.118799988,-0.0290.118849988,-0.0290.118899988,-0.0290.118949988,-0.0290.118999988,-0.0290.119049988,-0.0290.119099988,-0.0290.119149988,-0.0290.119199988,-0.0290.119249988,-0.0290.119299988,-0.0280.119349988,-0.0280.119399988,-0.0280.119449988,-0.0270.119499988,-0.0270.119549988,-0.0270.119599988,-0.0260.119649988,-0.0260.119699988,-0.0260.119749988,-0.0260.119799988,-0.0260.119849988,-0.0260.119899988,-0.0260.119949988,-0.0250.119999988,-0.0250.120049988,-0.0250.120099988,-0.0250.120149988,-0.0250.120199988,-0.0240.120249988,-0.0240.120299988,-0.0240.120349988,-0.0240.120399988,-0.0230.120449988,-0.0230.120499988,-0.0230.120549988,-0.0230.120599988,-0.0230.120649988,-0.0240.120699988,-0.0240.120749988,-0.0240.120799988,-0.0240.120849988,-0.0240.120899988,-0.0240.120949988,-0.0240.120999988,-0.0230.121049988,-0.0230.121099988,-0.0230.121149988,-0.0240.121199988,-0.0240.121249988,-0.0240.121299988,-0.0250.121349988,-0.0250.121399988,-0.0250.121449988,-0.0250.121499988,-0.0250.121549988,-0.0240.121599988,-0.0240.121649988,-0.0240.121699988,-0.0240.121749988,-0.0240.121799988,-0.0240.121849988,-0.0240.121899988,-0.0240.121949988,-0.0250.121999988,-0.0250.122049988,-0.0250.122099988,-0.0250.122149988,-0.0260.122199988,-0.0260.122249988,-0.0260.122299988,-0.0260.122349988,-0.0260.122399988,-0.0260.122449988,-0.0260.122499988,-0.0260.122549988,-0.0260.122599988,-0.0260.122649988,-0.0260.122699988,-0.0260.122749988,-0.0260.122799988,-0.0250.122849988,-0.0250.122899988,-0.0250.122949988,-0.0250.122999988,-0.0250.123049988,-0.0250.123099988,-0.0250.123149988,-0.0250.123199988,-0.0260.123249988,-0.0260.123299988,-0.0260.123349988,-0.0270.123399988,-0.0270.123449988,-0.0270.123499988,-0.0280.123549988,-0.0280.123599988,-0.0280.123649988,-0.0280.123699988,-0.0280.123749988,-0.0280.123799988,-0.0280.123849988,-0.0280.123899988,-0.0280.123949988,-0.0280.123999988,-0.0280.124049988,-0.0280.124099988,-0.0280.124149988,-0.0280.124199988,-0.0280.124249988,-0.0280.124299988,-0.0280.124349988,-0.0280.124399988,-0.0280.124449988,-0.0280.124499988,-0.0280.124549988,-0.0280.124599988,-0.0280.124649988,-0.0280.124699988,-0.0280.124749988,-0.0290.124799988,-0.0290.124849988,-0.030.124899988,-0.030.124949988,-0.0310.124999988,-0.0310.125049988,-0.0310.125099988,-0.0310.125149988,-0.0310.125199988,-0.0310.125249988,-0.0310.125299988,-0.0310.125349988,-0.0310.125399988,-0.0310.125449988,-0.0310.125499988,-0.0310.125549988,-0.0320.125599988,-0.0320.125649988,-0.0330.125699988,-0.0330.125749988,-0.0330.125799988,-0.0330.125849988,-0.0330.125899988,-0.0340.125949988,-0.0340.125999988,-0.0340.126049988,-0.0340.126099988,-0.0340.126149988,-0.0340.126199988,-0.0350.126249988,-0.0350.126299988,-0.0350.126349988,-0.0350.126399988,-0.0360.126449988,-0.0360.126499988,-0.0370.126549988,-0.0370.126599988,-0.0380.126649988,-0.0380.126699988,-0.0380.126749988,-0.0390.126799988,-0.0390.126849988,-0.0390.126899988,-0.040.126949988,-0.040.126999988,-0.040.127049988,-0.040.127099988,-0.040.127149988,-0.040.127199988,-0.040.127249988,-0.040.127299988,-0.040.127349988,-0.040.127399988,-0.040.127449988,-0.040.127499988,-0.040.127549987,-0.0410.127599987,-0.0410.127649987,-0.0420.127699987,-0.0430.127749987,-0.0430.127799987,-0.0440.127849987,-0.0440.127899987,-0.0450.127949987,-0.0450.127999987,-0.0450.128049987,-0.0460.128099987,-0.0460.128149987,-0.0470.128199987,-0.0470.128249987,-0.0480.128299987,-0.0480.128349987,-0.0480.128399987,-0.0480.128449987,-0.0490.128499987,-0.0490.128549987,-0.0490.128599987,-0.0490.128649987,-0.0490.128699987,-0.0490.128749987,-0.0490.128799987,-0.050.128849987,-0.050.128899987,-0.050.128949987,-0.050.128999987,-0.0510.129049987,-0.0510.129099987,-0.0510.129149987,-0.0510.129199987,-0.0510.129249987,-0.0510.129299987,-0.050.129349987,-0.050.129399987,-0.050.129449987,-0.050.129499987,-0.0490.129549987,-0.0490.129599987,-0.0490.129649987,-0.0490.129699987,-0.0490.129749987,-0.0490.129799987,-0.0490.129849987,-0.050.129899987,-0.050.129949987,-0.050.129999987,-0.050.130049987,-0.050.130099987,-0.050.130149987,-0.050.130199987,-0.050.130249987,-0.050.130299987,-0.050.130349987,-0.050.130399987,-0.050.130449987,-0.050.130499987,-0.050.130549987,-0.050.130599987,-0.050.130649987,-0.050.130699987,-0.050.130749987,-0.050.130799987,-0.050.130849987,-0.050.130899987,-0.050.130949987,-0.050.130999987,-0.050.131049987,-0.050.131099987,-0.0490.131149987,-0.0490.131199987,-0.0480.131249987,-0.0480.131299987,-0.0480.131349987,-0.0470.131399987,-0.0470.131449987,-0.0470.131499987,-0.0470.131549987,-0.0460.131599987,-0.0460.131649987,-0.0460.131699987,-0.0450.131749987,-0.0450.131799987,-0.0440.131849987,-0.0440.131899987,-0.0430.131949987,-0.0430.131999987,-0.0430.132049987,-0.0420.132099987,-0.0420.132149987,-0.0420.132199987,-0.0420.132249987,-0.0420.132299987,-0.0420.132349987,-0.0420.132399987,-0.0420.132449987,-0.0420.132499987,-0.0420.132549987,-0.0410.132599987,-0.0410.132649987,-0.0410.132699987,-0.040.132749987,-0.040.132799987,-0.040.132849987,-0.0390.132899987,-0.0390.132949987,-0.0390.132999987,-0.0390.133049987,-0.0390.133099987,-0.0390.133149987,-0.0380.133199987,-0.0380.133249987,-0.0380.133299987,-0.0370.133349987,-0.0370.133399987,-0.0370.133449987,-0.0360.133499987,-0.0360.133549987,-0.0350.133599987,-0.0350.133649987,-0.0340.133699987,-0.0340.133749987,-0.0330.133799987,-0.0330.133849987,-0.0330.133899987,-0.0320.133949987,-0.0320.133999987,-0.0310.134049987,-0.0310.134099987,-0.030.134149987,-0.030.134199987,-0.0290.134249987,-0.0290.134299987,-0.0280.134349987,-0.0280.134399987,-0.0280.134449987,-0.0270.134499987,-0.0270.134549987,-0.0260.134599987,-0.0260.134649987,-0.0260.134699987,-0.0260.134749987,-0.0250.134799987,-0.0250.134849987,-0.0250.134899987,-0.0240.134949987,-0.0240.134999987,-0.0240.135049987,-0.0230.135099987,-0.0230.135149987,-0.0220.135199987,-0.0220.135249987,-0.0210.135299987,-0.0210.135349987,-0.0210.135399987,-0.020.135449987,-0.020.135499987,-0.0190.135549987,-0.0190.135599987,-0.0180.135649987,-0.0180.135699987,-0.0180.135749987,-0.0170.135799987,-0.0170.135849987,-0.0170.135899987,-0.0170.135949987,-0.0170.135999987,-0.0160.136049987,-0.0160.136099987,-0.0160.136149987,-0.0160.136199987,-0.0160.136249987,-0.0150.136299987,-0.0150.136349987,-0.0150.136399987,-0.0150.136449987,-0.0150.136499987,-0.0150.136549987,-0.0150.136599987,-0.0140.136649987,-0.0140.136699987,-0.0130.136749987,-0.0130.136799987,-0.0130.136849987,-0.0120.136899987,-0.0120.136949987,-0.0120.136999987,-0.0120.137049987,-0.0110.137099987,-0.0110.137149987,-0.0120.137199987,-0.0120.137249987,-0.0120.137299987,-0.0120.137349987,-0.0120.137399987,-0.0120.137449987,-0.0120.137499987,-0.0120.137549987,-0.0120.137599987,-0.0120.137649987,-0.0120.137699987,-0.0120.137749986,-0.0120.137799986,-0.0120.137849986,-0.0120.137899986,-0.0120.137949986,-0.0120.137999986,-0.0120.138049986,-0.0120.138099986,-0.0120.138149986,-0.0120.138199986,-0.0120.138249986,-0.0130.138299986,-0.0120.138349986,-0.0120.138399986,-0.0120.138449986,-0.0120.138499986,-0.0120.138549986,-0.0120.138599986,-0.0120.138649986,-0.0120.138699986,-0.0120.138749986,-0.0120.138799986,-0.0130.138849986,-0.0130.138899986,-0.0130.138949986,-0.0130.138999986,-0.0130.139049986,-0.0130.139099986,-0.0130.139149986,-0.0130.139199986,-0.0130.139249986,-0.0130.139299986,-0.0130.139349986,-0.0140.139399986,-0.0140.139449986,-0.0140.139499986,-0.0140.139549986,-0.0140.139599986,-0.0140.139649986,-0.0140.139699986,-0.0140.139749986,-0.0140.139799986,-0.0140.139849986,-0.0140.139899986,-0.0140.139949986,-0.0150.139999986,-0.0150.140049986,-0.0150.140099986,-0.0150.140149986,-0.0160.140199986,-0.0160.140249986,-0.0160.140299986,-0.0170.140349986,-0.0170.140399986,-0.0170.140449986,-0.0170.140499986,-0.0170.140549986,-0.0170.140599986,-0.0170.140649986,-0.0170.140699986,-0.0170.140749986,-0.0160.140799986,-0.0170.140849986,-0.0170.140899986,-0.0170.140949986,-0.0170.140999986,-0.0170.141049986,-0.0170.141099986,-0.0170.141149986,-0.0180.141199986,-0.0180.141249986,-0.0180.141299986,-0.0180.141349986,-0.0180.141399986,-0.0180.141449986,-0.0180.141499986,-0.0180.141549986,-0.0180.141599986,-0.0180.141649986,-0.0180.141699986,-0.0180.141749986,-0.0190.141799986,-0.0190.141849986,-0.0190.141899986,-0.0190.141949986,-0.0190.141999986,-0.0190.142049986,-0.0190.142099986,-0.020.142149986,-0.020.142199986,-0.020.142249986,-0.020.142299986,-0.020.142349986,-0.020.142399986,-0.0210.142449986,-0.0210.142499986,-0.0220.142549986,-0.0220.142599986,-0.0220.142649986,-0.0230.142699986,-0.0230.142749986,-0.0240.142799986,-0.0240.142849986,-0.0250.142899986,-0.0250.142949986,-0.0260.142999986,-0.0260.143049986,-0.0270.143099986,-0.0280.143149986,-0.0280.143199986,-0.0290.143249986,-0.0290.143299986,-0.030.143349986,-0.030.143399986,-0.0310.143449986,-0.0310.143499986,-0.0320.143549986,-0.0330.143599986,-0.0330.143649986,-0.0340.143699986,-0.0350.143749986,-0.0350.143799986,-0.0360.143849986,-0.0370.143899986,-0.0370.143949986,-0.0380.143999986,-0.0380.144049986,-0.0390.144099986,-0.0390.144149986,-0.040.144199986,-0.040.144249986,-0.0410.144299986,-0.0410.144349986,-0.0420.144399986,-0.0420.144449986,-0.0430.144499986,-0.0430.144549986,-0.0440.144599986,-0.0440.144649986,-0.0450.144699986,-0.0460.144749986,-0.0470.144799986,-0.0480.144849986,-0.0480.144899986,-0.0490.144949986,-0.050.144999986,-0.050.145049986,-0.050.145099986,-0.0510.145149986,-0.0510.145199986,-0.0520.145249986,-0.0520.145299986,-0.0520.145349986,-0.0530.145399986,-0.0540.145449986,-0.0540.145499986,-0.0550.145549986,-0.0550.145599986,-0.0550.145649986,-0.0560.145699986,-0.0560.145749986,-0.0570.145799986,-0.0580.145849986,-0.0580.145899986,-0.0590.145949986,-0.060.145999986,-0.0610.146049986,-0.0620.146099986,-0.0630.146149986,-0.0640.146199986,-0.0640.146249986,-0.0650.146299986,-0.0650.146349986,-0.0650.146399986,-0.0660.146449986,-0.0660.146499986,-0.0660.146549986,-0.0660.146599986,-0.0660.146649986,-0.0670.146699986,-0.0670.146749986,-0.0680.146799986,-0.0680.146849986,-0.0690.146899986,-0.070.146949986,-0.070.146999986,-0.0710.147049986,-0.0720.147099986,-0.0720.147149986,-0.0730.147199986,-0.0730.147249986,-0.0740.147299986,-0.0750.147349986,-0.0750.147399986,-0.0750.147449986,-0.0760.147499986,-0.0760.147549986,-0.0770.147599986,-0.0770.147649986,-0.0780.147699986,-0.0790.147749986,-0.080.147799986,-0.0810.147849986,-0.0810.147899986,-0.0820.147949985,-0.0820.147999985,-0.0820.148049985,-0.0830.148099985,-0.0830.148149985,-0.0830.148199985,-0.0830.148249985,-0.0830.148299985,-0.0830.148349985,-0.0830.148399985,-0.0830.148449985,-0.0830.148499985,-0.0840.148549985,-0.0840.148599985,-0.0840.148649985,-0.0840.148699985,-0.0830.148749985,-0.0830.148799985,-0.0830.148849985,-0.0830.148899985,-0.0830.148949985,-0.0830.148999985,-0.0830.149049985,-0.0830.149099985,-0.0830.149149985,-0.0830.149199985,-0.0830.149249985,-0.0830.149299985,-0.0820.149349985,-0.0820.149399985,-0.0820.149449985,-0.0820.149499985,-0.0820.149549985,-0.0810.149599985,-0.0810.149649985,-0.080.149699985,-0.080.149749985,-0.080.149799985,-0.0790.149849985,-0.0790.149899985,-0.0780.149949985,-0.0780.149999985,-0.0770.150049985,-0.0770.150099985,-0.0770.150149985,-0.0760.150199985,-0.0760.150249985,-0.0750.150299985,-0.0750.150349985,-0.0740.150399985,-0.0730.150449985,-0.0720.150499985,-0.0720.150549985,-0.0710.150599985,-0.070.150649985,-0.0690.150699985,-0.0680.150749985,-0.0670.150799985,-0.0660.150849985,-0.0650.150899985,-0.0640.150949985,-0.0630.150999985,-0.0620.151049985,-0.060.151099985,-0.0590.151149985,-0.0580.151199985,-0.0570.151249985,-0.0560.151299985,-0.0550.151349985,-0.0540.151399985,-0.0530.151449985,-0.0510.151499985,-0.050.151549985,-0.0480.151599985,-0.0470.151649985,-0.0450.151699985,-0.0440.151749985,-0.0420.151799985,-0.040.151849985,-0.0390.151899985,-0.0370.151949985,-0.0360.151999985,-0.0340.152049985,-0.0320.152099985,-0.030.152149985,-0.0290.152199985,-0.0270.152249985,-0.0250.152299985,-0.0220.152349985,-0.020.152399985,-0.0180.152449985,-0.0160.152499985,-0.0140.152549985,-0.0120.152599985,-0.0090.152649985,-0.0070.152699985,-0.0050.152749985,-0.0030.152799985,00.152849985,0.0020.152899985,0.0050.152949985,0.0070.152999985,0.010.153049985,0.0130.153099985,0.0160.153149985,0.0190.153199985,0.0220.153249985,0.0250.153299985,0.0280.153349985,0.0310.153399985,0.0350.153449985,0.0380.153499985,0.0410.153549985,0.0440.153599985,0.0480.153649985,0.0520.153699985,0.0550.153749985,0.0590.153799985,0.0630.153849985,0.0670.153899985,0.0710.153949985,0.0750.153999985,0.080.154049985,0.0840.154099985,0.0890.154149985,0.0930.154199985,0.0980.154249985,0.1030.154299985,0.1080.154349985,0.1130.154399985,0.1170.154449985,0.1220.154499985,0.1280.154549985,0.1330.154599985,0.1380.154649985,0.1440.154699985,0.1490.154749985,0.1550.154799985,0.1610.154849985,0.1670.154899985,0.1730.154949985,0.1790.154999985,0.1850.155049985,0.1910.155099985,0.1970.155149985,0.2030.155199985,0.210.155249985,0.2160.155299985,0.2220.155349985,0.2290.155399985,0.2350.155449985,0.2420.155499985,0.2480.155549985,0.2550.155599985,0.2620.155649985,0.2690.155699985,0.2760.155749985,0.2830.155799985,0.290.155849985,0.2980.155899985,0.3050.155949985,0.3130.155999985,0.3210.156049985,0.3280.156099985,0.3360.156149985,0.3440.156199985,0.3510.156249985,0.3590.156299985,0.3670.156349985,0.3750.156399985,0.3820.156449985,0.390.156499985,0.3980.156549985,0.4060.156599985,0.4140.156649985,0.4210.156699985,0.4290.156749985,0.4370.156799985,0.4450.156849985,0.4520.156899985,0.460.156949985,0.4680.156999985,0.4750.157049985,0.4830.157099985,0.4910.157149985,0.4990.157199985,0.5060.157249985,0.5140.157299985,0.5220.157349985,0.5290.157399985,0.5370.157449985,0.5450.157499985,0.5530.157549985,0.5610.157599985,0.5690.157649985,0.5770.157699985,0.5850.157749985,0.5920.157799985,0.60.157849985,0.6070.157899985,0.6150.157949985,0.6220.157999985,0.6290.158049985,0.6370.158099985,0.6440.158149984,0.6520.158199984,0.6590.158249984,0.6660.158299984,0.6740.158349984,0.6810.158399984,0.6890.158449984,0.6960.158499984,0.7040.158549984,0.7120.158599984,0.7190.158649984,0.7270.158699984,0.7340.158749984,0.7420.158799984,0.7490.158849984,0.7570.158899984,0.7640.158949984,0.7710.158999984,0.7790.159049984,0.7860.159099984,0.7930.159149984,0.8010.159199984,0.8080.159249984,0.8150.159299984,0.8220.159349984,0.8290.159399984,0.8370.159449984,0.8440.159499984,0.8510.159549984,0.8580.159599984,0.8650.159649984,0.8720.159699984,0.8790.159749984,0.8860.159799984,0.8930.159849984,0.90.159899984,0.9070.159949984,0.9140.159999984,0.9210.160049984,0.9280.160099984,0.9350.160149984,0.9420.160199984,0.9490.160249984,0.9560.160299984,0.9630.160349984,0.970.160399984,0.9770.160449984,0.9840.160499984,0.9910.160549984,0.9970.160599984,1.0040.160649984,1.0110.160699984,1.0170.160749984,1.0240.160799984,1.030.160849984,1.0370.160899984,1.0440.160949984,1.0510.160999984,1.0570.161049984,1.0640.161099984,1.070.161149984,1.0770.161199984,1.0830.161249984,1.090.161299984,1.0960.161349984,1.1020.161399984,1.1080.161449984,1.1140.161499984,1.120.161549984,1.1260.161599984,1.1330.161649984,1.1390.161699984,1.1450.161749984,1.1510.161799984,1.1580.161849984,1.1640.161899984,1.1710.161949984,1.1770.161999984,1.1830.162049984,1.190.162099984,1.1970.162149984,1.2030.162199984,1.210.162249984,1.2170.162299984,1.2230.162349984,1.230.162399984,1.2370.162449984,1.2440.162499984,1.2510.162549984,1.2570.162599984,1.2630.162649984,1.270.162699984,1.2760.162749984,1.2830.162799984,1.2890.162849984,1.2960.162899984,1.3020.162949984,1.3090.162999984,1.3150.163049984,1.3210.163099984,1.3280.163149984,1.3340.163199984,1.3410.163249984,1.3470.163299984,1.3540.163349984,1.3610.163399984,1.3670.163449984,1.3740.163499984,1.3810.163549984,1.3870.163599984,1.3940.163649984,1.4010.163699984,1.4080.163749984,1.4140.163799984,1.4210.163849984,1.4280.163899984,1.4340.163949984,1.4410.163999984,1.4480.164049984,1.4550.164099984,1.4620.164149984,1.4690.164199984,1.4760.164249984,1.4820.164299984,1.4890.164349984,1.4960.164399984,1.5020.164449984,1.5090.164499984,1.5160.164549984,1.5230.164599984,1.530.164649984,1.5370.164699984,1.5440.164749984,1.5510.164799984,1.5580.164849984,1.5650.164899984,1.5710.164949984,1.5780.164999984,1.5850.165049984,1.5920.165099984,1.5990.165149984,1.6060.165199984,1.6130.165249984,1.620.165299984,1.6260.165349984,1.6330.165399984,1.640.165449984,1.6470.165499984,1.6530.165549984,1.660.165599984,1.6660.165649984,1.6730.165699984,1.6790.165749984,1.6860.165799984,1.6920.165849984,1.6990.165899984,1.7050.165949984,1.7120.165999984,1.7190.166049984,1.7260.166099984,1.7320.166149984,1.7380.166199984,1.7450.166249984,1.7510.166299984,1.7570.166349984,1.7630.166399984,1.7690.166449984,1.7750.166499984,1.7810.166549984,1.7880.166599984,1.7950.166649984,1.8010.166699984,1.8080.166749984,1.8150.166799984,1.8210.166849984,1.8280.166899984,1.8340.166949984,1.840.166999984,1.8460.167049984,1.8520.167099984,1.8580.167149984,1.8640.167199984,1.870.167249984,1.8750.167299984,1.8820.167349984,1.8880.167399984,1.8940.167449984,1.90.167499984,1.9060.167549984,1.9120.167599984,1.9170.167649984,1.9230.167699984,1.9290.167749984,1.9340.167799984,1.940.167849984,1.9450.167899984,1.950.167949984,1.9560.167999984,1.9610.168049984,1.9660.168099984,1.9720.168149984,1.9770.168199984,1.9830.168249984,1.9880.168299984,1.9940.168349983,20.168399983,2.0050.168449983,2.0110.168499983,2.0160.168549983,2.0220.168599983,2.0270.168649983,2.0320.168699983,2.0370.168749983,2.0430.168799983,2.0480.168849983,2.0530.168899983,2.0580.168949983,2.0630.168999983,2.0680.169049983,2.0740.169099983,2.0790.169149983,2.0840.169199983,2.090.169249983,2.0950.169299983,2.10.169349983,2.1050.169399983,2.110.169449983,2.1150.169499983,2.120.169549983,2.1240.169599983,2.1290.169649983,2.1330.169699983,2.1380.169749983,2.1420.169799983,2.1460.169849983,2.1510.169899983,2.1550.169949983,2.160.169999983,2.1640.170049983,2.1690.170099983,2.1730.170149983,2.1770.170199983,2.1810.170249983,2.1860.170299983,2.190.170349983,2.1940.170399983,2.1980.170449983,2.2020.170499983,2.2060.170549983,2.210.170599983,2.2130.170649983,2.2170.170699983,2.220.170749983,2.2230.170799983,2.2270.170849983,2.230.170899983,2.2330.170949983,2.2360.170999983,2.2390.171049983,2.2420.171099983,2.2450.171149983,2.2490.171199983,2.2520.171249983,2.2550.171299983,2.2580.171349983,2.2610.171399983,2.2640.171449983,2.2660.171499983,2.2690.171549983,2.2720.171599983,2.2740.171649983,2.2770.171699983,2.280.171749983,2.2820.171799983,2.2850.171849983,2.2870.171899983,2.2890.171949983,2.2910.171999983,2.2940.172049983,2.2960.172099983,2.2970.172149983,2.2990.172199983,2.30.172249983,2.3020.172299983,2.3030.172349983,2.3040.172399983,2.3050.172449983,2.3050.172499983,2.3060.172549983,2.3070.172599983,2.3070.172649983,2.3070.172699983,2.3070.172749983,2.3070.172799983,2.3070.172849983,2.3060.172899983,2.3050.172949983,2.3040.172999983,2.3030.173049983,2.3020.173099983,2.3020.173149983,2.3010.173199983,2.30.173249983,2.2990.173299983,2.2980.173349983,2.2970.173399983,2.2960.173449983,2.2940.173499983,2.2930.173549983,2.2910.173599983,2.290.173649983,2.2880.173699983,2.2850.173749983,2.2830.173799983,2.2810.173849983,2.2780.173899983,2.2760.173949983,2.2730.173999983,2.2690.174049983,2.2660.174099983,2.2620.174149983,2.2570.174199983,2.2520.174249983,2.2480.174299983,2.2420.174349983,2.2370.174399983,2.2320.174449983,2.2260.174499983,2.220.174549983,2.2150.174599983,2.2080.174649983,2.2020.174699983,2.1960.174749983,2.1890.174799983,2.1820.174849983,2.1750.174899983,2.1680.174949983,2.160.174999983,2.1520.175049983,2.1440.175099983,2.1350.175149983,2.1270.175199983,2.1180.175249983,2.1080.175299983,2.0990.175349983,2.090.175399983,2.080.175449983,2.070.175499983,2.060.175549983,2.0490.175599983,2.0380.175649983,2.0270.175699983,2.0150.175749983,2.0030.175799983,1.9910.175849983,1.9790.175899983,1.9670.175949983,1.9550.175999983,1.9420.176049983,1.930.176099983,1.9170.176149983,1.9040.176199983,1.8910.176249983,1.8770.176299983,1.8640.176349983,1.850.176399983,1.8360.176449983,1.8220.176499983,1.8080.176549983,1.7940.176599983,1.780.176649983,1.7660.176699983,1.7520.176749983,1.7370.176799983,1.7230.176849983,1.7080.176899983,1.6930.176949983,1.6790.176999983,1.6640.177049983,1.6490.177099983,1.6340.177149983,1.6190.177199983,1.6040.177249983,1.5890.177299983,1.5740.177349983,1.5590.177399983,1.5440.177449983,1.5290.177499983,1.5140.177549983,1.4990.177599983,1.4830.177649983,1.4680.177699983,1.4530.177749983,1.4370.177799983,1.4220.177849983,1.4070.177899983,1.3910.177949983,1.3760.177999983,1.360.178049983,1.3450.178099983,1.3290.178149983,1.3130.178199983,1.2970.178249983,1.2820.178299983,1.2660.178349983,1.250.178399983,1.2350.178449983,1.2190.178499983,1.2040.178549982,1.1890.178599982,1.1740.178649982,1.1580.178699982,1.1430.178749982,1.1280.178799982,1.1130.178849982,1.0980.178899982,1.0830.178949982,1.0680.178999982,1.0530.179049982,1.0390.179099982,1.0240.179149982,1.0090.179199982,0.9950.179249982,0.980.179299982,0.9650.179349982,0.950.179399982,0.9350.179449982,0.920.179499982,0.9060.179549982,0.8910.179599982,0.8770.179649982,0.8630.179699982,0.850.179749982,0.8360.179799982,0.8220.179849982,0.8090.179899982,0.7950.179949982,0.7820.179999982,0.7690.180049982,0.7560.180099982,0.7440.180149982,0.7310.180199982,0.7180.180249982,0.7060.180299982,0.6940.180349982,0.6820.180399982,0.670.180449982,0.6580.180499982,0.6460.180549982,0.6340.180599982,0.6220.180649982,0.610.180699982,0.5990.180749982,0.5870.180799982,0.5760.180849982,0.5640.180899982,0.5530.180949982,0.5420.180999982,0.5310.181049982,0.520.181099982,0.510.181149982,0.4990.181199982,0.4890.181249982,0.4790.181299982,0.4690.181349982,0.460.181399982,0.450.181449982,0.440.181499982,0.4310.181549982,0.4210.181599982,0.4120.181649982,0.4030.181699982,0.3940.181749982,0.3850.181799982,0.3760.181849982,0.3670.181899982,0.3590.181949982,0.350.181999982,0.3420.182049982,0.3340.182099982,0.3250.182149982,0.3180.182199982,0.310.182249982,0.3020.182299982,0.2950.182349982,0.2870.182399982,0.280.182449982,0.2720.182499982,0.2650.182549982,0.2580.182599982,0.250.182649982,0.2430.182699982,0.2370.182749982,0.230.182799982,0.2230.182849982,0.2170.182899982,0.2110.182949982,0.2050.182999982,0.1980.183049982,0.1920.183099982,0.1860.183149982,0.1810.183199982,0.1750.183249982,0.1690.183299982,0.1640.183349982,0.1580.183399982,0.1530.183449982,0.1470.183499982,0.1420.183549982,0.1370.183599982,0.1320.183649982,0.1270.183699982,0.1220.183749982,0.1170.183799982,0.1120.183849982,0.1080.183899982,0.1030.183949982,0.0990.183999982,0.0950.184049982,0.0910.184099982,0.0870.184149982,0.0830.184199982,0.0790.184249982,0.0750.184299982,0.0710.184349982,0.0670.184399982,0.0630.184449982,0.060.184499982,0.0560.184549982,0.0530.184599982,0.0490.184649982,0.0460.184699982,0.0430.184749982,0.040.184799982,0.0370.184849982,0.0340.184899982,0.0310.184949982,0.0280.184999982,0.0250.185049982,0.0220.185099982,0.0190.185149982,0.0160.185199982,0.0140.185249982,0.0110.185299982,0.0090.185349982,0.0060.185399982,0.0040.185449982,0.0020.185499982,-0.0010.185549982,-0.0030.185599982,-0.0050.185649982,-0.0070.185699982,-0.010.185749982,-0.0120.185799982,-0.0140.185849982,-0.0160.185899982,-0.0180.185949982,-0.020.185999982,-0.0230.186049982,-0.0250.186099982,-0.0270.186149982,-0.0290.186199982,-0.0310.186249982,-0.0330.186299982,-0.0350.186349982,-0.0370.186399982,-0.0390.186449982,-0.0410.186499982,-0.0430.186549982,-0.0440.186599982,-0.0460.186649982,-0.0480.186699982,-0.0490.186749982,-0.0510.186799982,-0.0520.186849982,-0.0540.186899982,-0.0550.186949982,-0.0560.186999982,-0.0580.187049982,-0.0590.187099982,-0.060.187149982,-0.0620.187199982,-0.0630.187249982,-0.0640.187299982,-0.0650.187349982,-0.0660.187399982,-0.0670.187449982,-0.0690.187499982,-0.070.187549982,-0.0710.187599982,-0.0720.187649982,-0.0740.187699982,-0.0750.187749982,-0.0760.187799982,-0.0770.187849982,-0.0780.187899982,-0.0790.187949982,-0.080.187999982,-0.0810.188049982,-0.0820.188099982,-0.0830.188149982,-0.0840.188199982,-0.0850.188249982,-0.0860.188299982,-0.0870.188349982,-0.0880.188399982,-0.0890.188449982,-0.090.188499982,-0.0910.188549982,-0.0920.188599982,-0.0930.188649982,-0.0940.188699982,-0.0950.188749981,-0.0960.188799981,-0.0970.188849981,-0.0980.188899981,-0.0980.188949981,-0.0990.188999981,-0.10.189049981,-0.1010.189099981,-0.1020.189149981,-0.1020.189199981,-0.1030.189249981,-0.1040.189299981,-0.1050.189349981,-0.1050.189399981,-0.1070.189449981,-0.1070.189499981,-0.1080.189549981,-0.1090.189599981,-0.110.189649981,-0.110.189699981,-0.1110.189749981,-0.1110.189799981,-0.1120.189849981,-0.1130.189899981,-0.1130.189949981,-0.1140.189999981,-0.1150.190049981,-0.1150.190099981,-0.1160.190149981,-0.1170.190199981,-0.1180.190249981,-0.1190.190299981,-0.1190.190349981,-0.120.190399981,-0.1210.190449981,-0.1210.190499981,-0.1220.190549981,-0.1220.190599981,-0.1230.190649981,-0.1230.190699981,-0.1230.190749981,-0.1230.190799981,-0.1230.190849981,-0.1240.190899981,-0.1240.190949981,-0.1240.190999981,-0.1250.191049981,-0.1250.191099981,-0.1260.191149981,-0.1260.191199981,-0.1260.191249981,-0.1270.191299981,-0.1270.191349981,-0.1280.191399981,-0.1280.191449981,-0.1290.191499981,-0.1290.191549981,-0.130.191599981,-0.130.191649981,-0.130.191699981,-0.1310.191749981,-0.1310.191799981,-0.1320.191849981,-0.1320.191899981,-0.1330.191949981,-0.1330.191999981,-0.1330.192049981,-0.1340.192099981,-0.1340.192149981,-0.1350.192199981,-0.1350.192249981,-0.1350.192299981,-0.1360.192349981,-0.1370.192399981,-0.1370.192449981,-0.1380.192499981,-0.1380.192549981,-0.1380.192599981,-0.1390.192649981,-0.140.192699981,-0.140.192749981,-0.1410.192799981,-0.1410.192849981,-0.1410.192899981,-0.1420.192949981,-0.1420.192999981,-0.1420.193049981,-0.1430.193099981,-0.1430.193149981,-0.1440.193199981,-0.1440.193249981,-0.1450.193299981,-0.1450.193349981,-0.1460.193399981,-0.1460.193449981,-0.1470.193499981,-0.1470.193549981,-0.1480.193599981,-0.1490.193649981,-0.1490.193699981,-0.150.193749981,-0.150.193799981,-0.150.193849981,-0.1510.193899981,-0.1510.193949981,-0.1510.193999981,-0.1510.194049981,-0.1510.194099981,-0.1520.194149981,-0.1520.194199981,-0.1520.194249981,-0.1530.194299981,-0.1530.194349981,-0.1530.194399981,-0.1540.194449981,-0.1540.194499981,-0.1550.194549981,-0.1550.194599981,-0.1560.194649981,-0.1560.194699981,-0.1560.194749981,-0.1560.194799981,-0.1570.194849981,-0.1570.194899981,-0.1570.194949981,-0.1580.194999981,-0.1580.195049981,-0.1590.195099981,-0.1590.195149981,-0.160.195199981,-0.160.195249981,-0.1610.195299981,-0.1610.195349981,-0.1610.195399981,-0.1620.195449981,-0.1620.195499981,-0.1620.195549981,-0.1620.195599981,-0.1630.195649981,-0.1630.195699981,-0.1630.195749981,-0.1630.195799981,-0.1630.195849981,-0.1640.195899981,-0.1640.195949981,-0.1640.195999981,-0.1640.196049981,-0.1640.196099981,-0.1640.196149981,-0.1640.196199981,-0.1640.196249981,-0.1650.196299981,-0.1650.196349981,-0.1650.196399981,-0.1650.196449981,-0.1660.196499981,-0.1660.196549981,-0.1660.196599981,-0.1660.196649981,-0.1670.196699981,-0.1670.196749981,-0.1670.196799981,-0.1670.196849981,-0.1670.196899981,-0.1670.196949981,-0.1670.196999981,-0.1670.197049981,-0.1670.197099981,-0.1670.197149981,-0.1670.197199981,-0.1670.197249981,-0.1670.197299981,-0.1670.197349981,-0.1670.197399981,-0.1670.197449981,-0.1670.197499981,-0.1670.197549981,-0.1660.197599981,-0.1660.197649981,-0.1660.197699981,-0.1650.197749981,-0.1650.197799981,-0.1650.197849981,-0.1650.197899981,-0.1650.197949981,-0.1650.197999981,-0.1650.198049981,-0.1650.198099981,-0.1650.198149981,-0.1660.198199981,-0.1660.198249981,-0.1660.198299981,-0.1660.198349981,-0.1660.198399981,-0.1660.198449981,-0.1660.198499981,-0.1660.198549981,-0.1660.198599981,-0.1660.198649981,-0.1660.198699981,-0.1650.198749981,-0.1650.198799981,-0.1650.198849981,-0.1650.198899981,-0.1650.19894998,-0.1650.19899998,-0.1650.19904998,-0.1660.19909998,-0.1660.19914998,-0.1660.19919998,-0.1660.19924998,-0.1660.19929998,-0.1660.19934998,-0.1660.19939998,-0.1660.19944998,-0.1660.19949998,-0.1650.19954998,-0.1650.19959998,-0.1650.19964998,-0.1650.19969998,-0.1650.19974998,-0.1650.19979998,-0.1650.19984998,-0.1640.19989998,-0.1640.19994998,-0.1650.19999998,-0.1640.20004998,-0.1650.20009998,-0.1650.20014998,-0.1650.20019998,-0.1650.20024998,-0.1650.20029998,-0.1650.20034998,-0.1650.20039998,-0.1650.20044998,-0.1650.20049998,-0.1650.20054998,-0.1650.20059998,-0.1650.20064998,-0.1640.20069998,-0.1640.20074998,-0.1640.20079998,-0.1640.20084998,-0.1630.20089998,-0.1630.20094998,-0.1630.20099998,-0.1630.20104998,-0.1630.20109998,-0.1630.20114998,-0.1630.20119998,-0.1630.20124998,-0.1620.20129998,-0.1620.20134998,-0.1610.20139998,-0.1610.20144998,-0.160.20149998,-0.160.20154998,-0.1590.20159998,-0.1590.20164998,-0.1590.20169998,-0.1580.20174998,-0.1580.20179998,-0.1580.20184998,-0.1580.20189998,-0.1580.20194998,-0.1580.20199998,-0.1580.20204998,-0.1570.20209998,-0.1570.20214998,-0.1570.20219998,-0.1560.20224998,-0.1560.20229998,-0.1560.20234998,-0.1560.20239998,-0.1560.20244998,-0.1560.20249998,-0.1560.20254998,-0.1550.20259998,-0.1550.20264998,-0.1550.20269998,-0.1550.20274998,-0.1550.20279998,-0.1550.20284998,-0.1540.20289998,-0.1540.20294998,-0.1540.20299998,-0.1540.20304998,-0.1530.20309998,-0.1530.20314998,-0.1530.20319998,-0.1530.20324998,-0.1530.20329998,-0.1540.20334998,-0.1540.20339998,-0.1540.20344998,-0.1540.20349998,-0.1540.20354998,-0.1540.20359998,-0.1540.20364998,-0.1540.20369998,-0.1540.20374998,-0.1540.20379998,-0.1540.20384998,-0.1540.20389998,-0.1540.20394998,-0.1540.20399998,-0.1540.20404998,-0.1530.20409998,-0.1530.20414998,-0.1530.20419998,-0.1530.20424998,-0.1530.20429998,-0.1530.20434998,-0.1530.20439998,-0.1530.20444998,-0.1530.20449998,-0.1530.20454998,-0.1530.20459998,-0.1530.20464998,-0.1540.20469998,-0.1540.20474998,-0.1540.20479998,-0.1540.20484998,-0.1550.20489998,-0.1550.20494998,-0.1550.20499998,-0.1550.20504998,-0.1550.20509998,-0.1550.20514998,-0.1550.20519998,-0.1550.20524998,-0.1550.20529998,-0.1540.20534998,-0.1540.20539998,-0.1550.20544998,-0.1550.20549998,-0.1550.20554998,-0.1550.20559998,-0.1560.20564998,-0.1560.20569998,-0.1560.20574998,-0.1560.20579998,-0.1560.20584998,-0.1560.20589998,-0.1560.20594998,-0.1560.20599998,-0.1560.20604998,-0.1560.20609998,-0.1560.20614998,-0.1560.20619998,-0.1560.20624998,-0.1560.20629998,-0.1570.20634998,-0.1570.20639998,-0.1570.20644998,-0.1580.20649998,-0.1580.20654998,-0.1580.20659998,-0.1590.20664998,-0.1590.20669998,-0.1590.20674998,-0.160.20679998,-0.160.20684998,-0.160.20689998,-0.160.20694998,-0.160.20699998,-0.160.20704998,-0.1610.20709998,-0.1610.20714998,-0.1610.20719998,-0.1610.20724998,-0.1610.20729998,-0.1620.20734998,-0.1620.20739998,-0.1620.20744998,-0.1630.20749998,-0.1630.20754998,-0.1630.20759998,-0.1640.20764998,-0.1640.20769998,-0.1640.20774998,-0.1650.20779998,-0.1650.20784998,-0.1650.20789998,-0.1650.20794998,-0.1650.20799998,-0.1650.20804998,-0.1650.20809998,-0.1640.20814998,-0.1640.20819998,-0.1640.20824998,-0.1640.20829998,-0.1650.20834998,-0.1650.20839998,-0.1650.20844998,-0.1650.20849998,-0.1660.20854998,-0.1660.20859998,-0.1660.20864998,-0.1670.20869998,-0.1670.20874998,-0.1680.20879998,-0.1680.20884998,-0.1690.20889998,-0.1690.20894998,-0.170.20899998,-0.170.20904998,-0.1710.20909998,-0.1710.209149979,-0.1710.209199979,-0.1720.209249979,-0.1720.209299979,-0.1720.209349979,-0.1720.209399979,-0.1720.209449979,-0.1720.209499979,-0.1730.209549979,-0.1730.209599979,-0.1730.209649979,-0.1730.209699979,-0.1730.209749979,-0.1730.209799979,-0.1730.209849979,-0.1740.209899979,-0.1740.209949979,-0.1750.209999979,-0.1750.210049979,-0.1750.210099979,-0.1760.210149979,-0.1760.210199979,-0.1760.210249979,-0.1770.210299979,-0.1770.210349979,-0.1770.210399979,-0.1780.210449979,-0.1780.210499979,-0.1790.210549979,-0.1790.210599979,-0.1790.210649979,-0.1790.210699979,-0.180.210749979,-0.180.210799979,-0.180.210849979,-0.1810.210899979,-0.1810.210949979,-0.1820.210999979,-0.1820.211049979,-0.1820.211099979,-0.1830.211149979,-0.1830.211199979,-0.1830.211249979,-0.1840.211299979,-0.1840.211349979,-0.1850.211399979,-0.1850.211449979,-0.1850.211499979,-0.1860.211549979,-0.1860.211599979,-0.1870.211649979,-0.1870.211699979,-0.1870.211749979,-0.1870.211799979,-0.1870.211849979,-0.1880.211899979,-0.1880.211949979,-0.1880.211999979,-0.1880.212049979,-0.1880.212099979,-0.1880.212149979,-0.1880.212199979,-0.1880.212249979,-0.1880.212299979,-0.1880.212349979,-0.1880.212399979,-0.1890.212449979,-0.1890.212499979,-0.1890.212549979,-0.1890.212599979,-0.1890.212649979,-0.1890.212699979,-0.1890.212749979,-0.190.212799979,-0.190.212849979,-0.190.212899979,-0.1910.212949979,-0.1920.212999979,-0.1920.213049979,-0.1930.213099979,-0.1930.213149979,-0.1930.213199979,-0.1940.213249979,-0.1940.213299979,-0.1940.213349979,-0.1940.213399979,-0.1940.213449979,-0.1940.213499979,-0.1940.213549979,-0.1940.213599979,-0.1940.213649979,-0.1940.213699979,-0.1930.213749979,-0.1930.213799979,-0.1930.213849979,-0.1930.213899979,-0.1930.213949979,-0.1930.213999979,-0.1930.214049979,-0.1930.214099979,-0.1930.214149979,-0.1930.214199979,-0.1930.214249979,-0.1930.214299979,-0.1930.214349979,-0.1920.214399979,-0.1920.214449979,-0.1920.214499979,-0.1920.214549979,-0.1920.214599979,-0.1920.214649979,-0.1910.214699979,-0.1910.214749979,-0.1910.214799979,-0.1910.214849979,-0.1910.214899979,-0.190.214949979,-0.190.214999979,-0.190.215049979,-0.190.215099979,-0.1890.215149979,-0.1890.215199979,-0.1890.215249979,-0.1890.215299979,-0.1890.215349979,-0.1890.215399979,-0.1890.215449979,-0.1890.215499979,-0.1890.215549979,-0.1890.215599979,-0.1890.215649979,-0.1890.215699979,-0.1890.215749979,-0.1880.215799979,-0.1880.215849979,-0.1880.215899979,-0.1880.215949979,-0.1870.215999979,-0.1870.216049979,-0.1870.216099979,-0.1870.216149979,-0.1860.216199979,-0.1860.216249979,-0.1860.216299979,-0.1860.216349979,-0.1860.216399979,-0.1860.216449979,-0.1860.216499979,-0.1860.216549979,-0.1850.216599979,-0.1850.216649979,-0.1850.216699979,-0.1850.216749979,-0.1850.216799979,-0.1840.216849979,-0.1840.216899979,-0.1840.216949979,-0.1830.216999979,-0.1830.217049979,-0.1830.217099979,-0.1830.217149979,-0.1820.217199979,-0.1820.217249979,-0.1820.217299979,-0.1820.217349979,-0.1810.217399979,-0.1810.217449979,-0.1810.217499979,-0.180.217549979,-0.180.217599979,-0.180.217649979,-0.1790.217699979,-0.1790.217749979,-0.1780.217799979,-0.1780.217849979,-0.1780.217899979,-0.1780.217949979,-0.1770.217999979,-0.1770.218049979,-0.1770.218099979,-0.1760.218149979,-0.1760.218199979,-0.1750.218249979,-0.1740.218299979,-0.1730.218349979,-0.1730.218399979,-0.1720.218449979,-0.1710.218499979,-0.170.218549979,-0.170.218599979,-0.170.218649979,-0.1690.218699979,-0.1690.218749979,-0.1690.218799979,-0.1690.218849979,-0.1680.218899979,-0.1680.218949979,-0.1670.218999979,-0.1670.219049979,-0.1660.219099979,-0.1660.219149979,-0.1650.219199979,-0.1650.219249979,-0.1650.219299979,-0.1650.219349978,-0.1650.219399978,-0.1650.219449978,-0.1640.219499978,-0.1640.219549978,-0.1640.219599978,-0.1640.219649978,-0.1640.219699978,-0.1630.219749978,-0.1630.219799978,-0.1630.219849978,-0.1620.219899978,-0.1620.219949978,-0.1620.219999978,-0.1610.220049978,-0.1610.220099978,-0.1610.220149978,-0.1610.220199978,-0.160.220249978,-0.160.220299978,-0.160.220349978,-0.160.220399978,-0.160.220449978,-0.160.220499978,-0.160.220549978,-0.160.220599978,-0.160.220649978,-0.1610.220699978,-0.1610.220749978,-0.1610.220799978,-0.1610.220849978,-0.1610.220899978,-0.1610.220949978,-0.1610.220999978,-0.1610.221049978,-0.1610.221099978,-0.160.221149978,-0.160.221199978,-0.160.221249978,-0.160.221299978,-0.1590.221349978,-0.1590.221399978,-0.1590.221449978,-0.1590.221499978,-0.1590.221549978,-0.1590.221599978,-0.1590.221649978,-0.1590.221699978,-0.1590.221749978,-0.1590.221799978,-0.1590.221849978,-0.1590.221899978,-0.1590.221949978,-0.1590.221999978,-0.1590.222049978,-0.1590.222099978,-0.1590.222149978,-0.160.222199978,-0.160.222249978,-0.160.222299978,-0.160.222349978,-0.160.222399978,-0.160.222449978,-0.160.222499978,-0.1590.222549978,-0.1590.222599978,-0.1590.222649978,-0.1590.222699978,-0.1580.222749978,-0.1580.222799978,-0.1580.222849978,-0.1590.222899978,-0.1590.222949978,-0.1590.222999978,-0.1590.223049978,-0.1590.223099978,-0.1590.223149978,-0.1590.223199978,-0.1590.223249978,-0.1590.223299978,-0.1590.223349978,-0.1590.223399978,-0.1590.223449978,-0.1590.223499978,-0.1590.223549978,-0.1590.223599978,-0.1590.223649978,-0.1590.223699978,-0.1590.223749978,-0.1590.223799978,-0.160.223849978,-0.160.223899978,-0.160.223949978,-0.160.223999978,-0.160.224049978,-0.160.224099978,-0.160.224149978,-0.160.224199978,-0.160.224249978,-0.160.224299978,-0.1610.224349978,-0.1610.224399978,-0.1610.224449978,-0.1610.224499978,-0.1610.224549978,-0.1620.224599978,-0.1620.224649978,-0.1620.224699978,-0.1620.224749978,-0.1630.224799978,-0.1630.224849978,-0.1630.224899978,-0.1630.224949978,-0.1630.224999978,-0.1630.225049978,-0.1640.225099978,-0.1640.225149978,-0.1640.225199978,-0.1640.225249978,-0.1640.225299978,-0.1640.225349978,-0.1640.225399978,-0.1650.225449978,-0.1650.225499978,-0.1650.225549978,-0.1650.225599978,-0.1650.225649978,-0.1650.225699978,-0.1660.225749978,-0.1660.225799978,-0.1660.225849978,-0.1660.225899978,-0.1670.225949978,-0.1670.225999978,-0.1670.226049978,-0.1680.226099978,-0.1680.226149978,-0.1680.226199978,-0.1690.226249978,-0.1690.226299978,-0.170.226349978,-0.170.226399978,-0.170.226449978,-0.1710.226499978,-0.1720.226549978,-0.1720.226599978,-0.1730.226649978,-0.1730.226699978,-0.1740.226749978,-0.1740.226799978,-0.1740.226849978,-0.1750.226899978,-0.1750.226949978,-0.1750.226999978,-0.1750.227049978,-0.1760.227099978,-0.1760.227149978,-0.1760.227199978,-0.1760.227249978,-0.1760.227299978,-0.1760.227349978,-0.1760.227399978,-0.1760.227449978,-0.1760.227499978,-0.1760.227549978,-0.1760.227599978,-0.1760.227649978,-0.1760.227699978,-0.1770.227749978,-0.1770.227799978,-0.1770.227849978,-0.1770.227899978,-0.1770.227949978,-0.1770.227999978,-0.1770.228049978,-0.1770.228099978,-0.1770.228149978,-0.1770.228199978,-0.1770.228249978,-0.1770.228299978,-0.1770.228349978,-0.1770.228399978,-0.1780.228449978,-0.1780.228499978,-0.1780.228549978,-0.1780.228599978,-0.1780.228649978,-0.1790.228699978,-0.1790.228749978,-0.1790.228799978,-0.1790.228849978,-0.180.228899978,-0.180.228949978,-0.180.228999978,-0.180.229049978,-0.180.229099978,-0.180.229149978,-0.1810.229199978,-0.1810.229249978,-0.1810.229299978,-0.1810.229349978,-0.1810.229399978,-0.1820.229449978,-0.1820.229499978,-0.1820.229549977,-0.1820.229599977,-0.1830.229649977,-0.1830.229699977,-0.1830.229749977,-0.1830.229799977,-0.1830.229849977,-0.1830.229899977,-0.1830.229949977,-0.1830.229999977,-0.1830.230049977,-0.1830.230099977,-0.1830.230149977,-0.1830.230199977,-0.1830.230249977,-0.1830.230299977,-0.1830.230349977,-0.1830.230399977,-0.1820.230449977,-0.1820.230499977,-0.1820.230549977,-0.1810.230599977,-0.1810.230649977,-0.1810.230699977,-0.180.230749977,-0.180.230799977,-0.180.230849977,-0.180.230899977,-0.180.230949977,-0.180.230999977,-0.180.231049977,-0.1810.231099977,-0.1810.231149977,-0.1810.231199977,-0.1810.231249977,-0.1810.231299977,-0.1810.231349977,-0.180.231399977,-0.180.231449977,-0.180.231499977,-0.1790.231549977,-0.1790.231599977,-0.1790.231649977,-0.1780.231699977,-0.1780.231749977,-0.1780.231799977,-0.1770.231849977,-0.1770.231899977,-0.1770.231949977,-0.1760.231999977,-0.1760.232049977,-0.1750.232099977,-0.1750.232149977,-0.1740.232199977,-0.1740.232249977,-0.1740.232299977,-0.1740.232349977,-0.1730.232399977,-0.1730.232449977,-0.1730.232499977,-0.1730.232549977,-0.1730.232599977,-0.1730.232649977,-0.1720.232699977,-0.1720.232749977,-0.1720.232799977,-0.1720.232849977,-0.1720.232899977,-0.1710.232949977,-0.1710.232999977,-0.170.233049977,-0.170.233099977,-0.170.233149977,-0.1690.233199977,-0.1690.233249977,-0.1680.233299977,-0.1680.233349977,-0.1680.233399977,-0.1670.233449977,-0.1670.233499977,-0.1670.233549977,-0.1660.233599977,-0.1660.233649977,-0.1650.233699977,-0.1650.233749977,-0.1650.233799977,-0.1640.233849977,-0.1630.233899977,-0.1630.233949977,-0.1630.233999977,-0.1620.234049977,-0.1620.234099977,-0.1620.234149977,-0.1620.234199977,-0.1620.234249977,-0.1620.234299977,-0.1610.234349977,-0.1610.234399977,-0.1610.234449977,-0.160.234499977,-0.160.234549977,-0.160.234599977,-0.1590.234649977,-0.1590.234699977,-0.1580.234749977,-0.1580.234799977,-0.1570.234849977,-0.1570.234899977,-0.1560.234949977,-0.1550.234999977,-0.1550.235049977,-0.1540.235099977,-0.1530.235149977,-0.1530.235199977,-0.1520.235249977,-0.1520.235299977,-0.1510.235349977,-0.1510.235399977,-0.1510.235449977,-0.150.235499977,-0.150.235549977,-0.150.235599977,-0.150.235649977,-0.150.235699977,-0.1490.235749977,-0.1490.235799977,-0.1490.235849977,-0.1490.235899977,-0.1490.235949977,-0.1490.235999977,-0.1480.236049977,-0.1480.236099977,-0.1480.236149977,-0.1480.236199977,-0.1470.236249977,-0.1470.236299977,-0.1460.236349977,-0.1460.236399977,-0.1460.236449977,-0.1460.236499977,-0.1450.236549977,-0.1450.236599977,-0.1450.236649977,-0.1450.236699977,-0.1440.236749977,-0.1440.236799977,-0.1430.236849977,-0.1430.236899977,-0.1430.236949977,-0.1430.236999977,-0.1430.237049977,-0.1430.237099977,-0.1430.237149977,-0.1430.237199977,-0.1430.237249977,-0.1430.237299977,-0.1430.237349977,-0.1430.237399977,-0.1430.237449977,-0.1430.237499977,-0.1420.237549977,-0.1420.237599977,-0.1420.237649977,-0.1420.237699977,-0.1420.237749977,-0.1420.237799977,-0.1420.237849977,-0.1420.237899977,-0.1420.237949977,-0.1420.237999977,-0.1420.238049977,-0.1420.238099977,-0.1420.238149977,-0.1420.238199977,-0.1410.238249977,-0.1410.238299977,-0.1410.238349977,-0.1410.238399977,-0.1410.238449977,-0.1410.238499977,-0.1410.238549977,-0.1410.238599977,-0.1410.238649977,-0.1410.238699977,-0.1410.238749977,-0.1410.238799977,-0.1410.238849977,-0.1420.238899977,-0.1420.238949977,-0.1420.238999977,-0.1430.239049977,-0.1430.239099977,-0.1430.239149977,-0.1440.239199977,-0.1440.239249977,-0.1450.239299977,-0.1450.239349977,-0.1460.239399977,-0.1460.239449977,-0.1460.239499977,-0.1460.239549977,-0.1470.239599977,-0.1470.239649977,-0.1470.239699977,-0.1470.239749976,-0.1480.239799976,-0.1480.239849976,-0.1480.239899976,-0.1480.239949976,-0.1490.239999976,-0.1490.240049976,-0.1490.240099976,-0.1490.240149976,-0.1490.240199976,-0.1490.240249976,-0.1490.240299976,-0.1490.240349976,-0.1490.240399976,-0.1490.240449976,-0.1490.240499976,-0.150.240549976,-0.150.240599976,-0.150.240649976,-0.150.240699976,-0.150.240749976,-0.150.240799976,-0.150.240849976,-0.150.240899976,-0.1510.240949976,-0.1510.240999976,-0.1520.241049976,-0.1520.241099976,-0.1530.241149976,-0.1530.241199976,-0.1530.241249976,-0.1530.241299976,-0.1530.241349976,-0.1530.241399976,-0.1530.241449976,-0.1530.241499976,-0.1530.241549976,-0.1540.241599976,-0.1540.241649976,-0.1540.241699976,-0.1550.241749976,-0.1550.241799976,-0.1550.241849976,-0.1560.241899976,-0.1560.241949976,-0.1560.241999976,-0.1560.242049976,-0.1560.242099976,-0.1570.242149976,-0.1570.242199976,-0.1570.242249976,-0.1570.242299976,-0.1580.242349976,-0.1580.242399976,-0.1580.242449976,-0.1590.242499976,-0.1590.242549976,-0.1590.242599976,-0.1590.242649976,-0.160.242699976,-0.160.242749976,-0.160.242799976,-0.1610.242849976,-0.1610.242899976,-0.1620.242949976,-0.1620.242999976,-0.1630.243049976,-0.1630.243099976,-0.1630.243149976,-0.1640.243199976,-0.1640.243249976,-0.1650.243299976,-0.1650.243349976,-0.1650.243399976,-0.1660.243449976,-0.1660.243499976,-0.1670.243549976,-0.1670.243599976,-0.1670.243649976,-0.1680.243699976,-0.1680.243749976,-0.1680.243799976,-0.1690.243849976,-0.1690.243899976,-0.1690.243949976,-0.1690.243999976,-0.170.244049976,-0.170.244099976,-0.170.244149976,-0.170.244199976,-0.170.244249976,-0.1710.244299976,-0.1710.244349976,-0.1710.244399976,-0.1710.244449976,-0.1710.244499976,-0.1710.244549976,-0.1710.244599976,-0.1710.244649976,-0.1720.244699976,-0.1720.244749976,-0.1720.244799976,-0.1730.244849976,-0.1730.244899976,-0.1740.244949976,-0.1740.244999976,-0.1750.245049976,-0.1750.245099976,-0.1750.245149976,-0.1760.245199976,-0.1760.245249976,-0.1760.245299976,-0.1760.245349976,-0.1760.245399976,-0.1760.245449976,-0.1760.245499976,-0.1760.245549976,-0.1770.245599976,-0.1770.245649976,-0.1770.245699976,-0.1770.245749976,-0.1770.245799976,-0.1770.245849976,-0.1770.245899976,-0.1770.245949976,-0.1770.245999976,-0.1770.246049976,-0.1770.246099976,-0.1770.246149976,-0.1770.246199976,-0.1770.246249976,-0.1770.246299976,-0.1770.246349976,-0.1770.246399976,-0.1770.246449976,-0.1770.246499976,-0.1770.246549976,-0.1780.246599976,-0.1780.246649976,-0.1780.246699976,-0.1780.246749976,-0.1780.246799976,-0.1780.246849976,-0.1780.246899976,-0.1780.246949976,-0.1780.246999976,-0.1770.247049976,-0.1770.247099976,-0.1770.247149976,-0.1770.247199976,-0.1770.247249976,-0.1770.247299976,-0.1770.247349976,-0.1770.247399976,-0.1770.247449976,-0.1770.247499976,-0.1770.247549976,-0.1770.247599976,-0.1770.247649976,-0.1770.247699976,-0.1770.247749976,-0.1770.247799976,-0.1770.247849976,-0.1770.247899976,-0.1770.247949976,-0.1770.247999976,-0.1770.248049976,-0.1770.248099976,-0.1770.248149976,-0.1770.248199976,-0.1770.248249976,-0.1770.248299976,-0.1770.248349976,-0.1770.248399976,-0.1770.248449976,-0.1760.248499976,-0.1760.248549976,-0.1760.248599976,-0.1760.248649976,-0.1750.248699976,-0.1750.248749976,-0.1750.248799976,-0.1750.248849976,-0.1740.248899976,-0.1740.248949976,-0.1730.248999976,-0.1730.249049976,-0.1720.249099976,-0.1720.249149976,-0.1710.249199976,-0.170.249249976,-0.170.249299976,-0.170.249349976,-0.1690.249399976,-0.1690.249449976,-0.1690.249499976,-0.1680.249549976,-0.1680.249599976,-0.1680.249649976,-0.1680.249699976,-0.1670.249749976,-0.1670.249799976,-0.1670.249849976,-0.1670.249899976,-0.1660.249949975,-0.1660.249999975,-0.1660.250049975,-0.1660.250099975,-0.1660.250149975,-0.1660.250199975,-0.1650.250249975,-0.1650.250299975,-0.1650.250349975,-0.1650.250399975,-0.1640.250449975,-0.1640.250499975,-0.1640.250549975,-0.1630.250599975,-0.1630.250649975,-0.1630.250699975,-0.1630.250749975,-0.1620.250799975,-0.1620.250849975,-0.1620.250899975,-0.1610.250949975,-0.1610.250999975,-0.1610.251049975,-0.1610.251099975,-0.160.251149975,-0.160.251199975,-0.160.251249975,-0.160.251299975,-0.1590.251349975,-0.1590.251399975,-0.1590.251449975,-0.1580.251499975,-0.1580.251549975,-0.1570.251599975,-0.1570.251649975,-0.1570.251699975,-0.1570.251749975,-0.1560.251799975,-0.1560.251849975,-0.1560.251899975,-0.1550.251949975,-0.1550.251999975,-0.1540.252049975,-0.1540.252099975,-0.1530.252149975,-0.1530.252199975,-0.1530.252249975,-0.1530.252299975,-0.1520.252349975,-0.1520.252399975,-0.1520.252449975,-0.1520.252499975,-0.1510.252549975,-0.1510.252599975,-0.150.252649975,-0.150.252699975,-0.1490.252749975,-0.1490.252799975,-0.1490.252849975,-0.1480.252899975,-0.1480.252949975,-0.1480.252999975,-0.1480.253049975,-0.1480.253099975,-0.1480.253149975,-0.1470.253199975,-0.1470.253249975,-0.1470.253299975,-0.1470.253349975,-0.1470.253399975,-0.1470.253449975,-0.1470.253499975,-0.1470.253549975,-0.1470.253599975,-0.1470.253649975,-0.1470.253699975,-0.1470.253749975,-0.1470.253799975,-0.1460.253849975,-0.1460.253899975,-0.1470.253949975,-0.1470.253999975,-0.1470.254049975,-0.1470.254099975,-0.1470.254149975,-0.1470.254199975,-0.1470.254249975,-0.1470.254299975,-0.1470.254349975,-0.1470.254399975,-0.1470.254449975,-0.1480.254499975,-0.1480.254549975,-0.1470.254599975,-0.1470.254649975,-0.1470.254699975,-0.1470.254749975,-0.1470.254799975,-0.1470.254849975,-0.1470.254899975,-0.1460.254949975,-0.1460.254999975,-0.1460.255049975,-0.1460.255099975,-0.1460.255149975,-0.1460.255199975,-0.1450.255249975,-0.1450.255299975,-0.1450.255349975,-0.1450.255399975,-0.1450.255449975,-0.1450.255499975,-0.1450.255549975,-0.1450.255599975,-0.1450.255649975,-0.1450.255699975,-0.1450.255749975,-0.1450.255799975,-0.1450.255849975,-0.1450.255899975,-0.1450.255949975,-0.1440.255999975,-0.1440.256049975,-0.1440.256099975,-0.1440.256149975,-0.1440.256199975,-0.1440.256249975,-0.1440.256299975,-0.1440.256349975,-0.1440.256399975,-0.1440.256449975,-0.1440.256499975,-0.1440.256549975,-0.1440.256599975,-0.1440.256649975,-0.1440.256699975,-0.1440.256749975,-0.1440.256799975,-0.1440.256849975,-0.1430.256899975,-0.1430.256949975,-0.1430.256999975,-0.1430.257049975,-0.1430.257099975,-0.1430.257149975,-0.1430.257199975,-0.1430.257249975,-0.1430.257299975,-0.1430.257349975,-0.1430.257399975,-0.1430.257449975,-0.1430.257499975,-0.1430.257549975,-0.1430.257599975,-0.1440.257649975,-0.1440.257699975,-0.1440.257749975,-0.1440.257799975,-0.1450.257849975,-0.1450.257899975,-0.1450.257949975,-0.1450.257999975,-0.1450.258049975,-0.1450.258099975,-0.1450.258149975,-0.1450.258199975,-0.1460.258249975,-0.1460.258299975,-0.1460.258349975,-0.1470.258399975,-0.1470.258449975,-0.1470.258499975,-0.1480.258549975,-0.1480.258599975,-0.1480.258649975,-0.1490.258699975,-0.1490.258749975,-0.1490.258799975,-0.1490.258849975,-0.1490.258899975,-0.1490.258949975,-0.1490.258999975,-0.1490.259049975,-0.1490.259099975,-0.1490.259149975,-0.150.259199975,-0.150.259249975,-0.1510.259299975,-0.1520.259349975,-0.1520.259399975,-0.1530.259449975,-0.1530.259499975,-0.1540.259549975,-0.1540.259599975,-0.1550.259649975,-0.1550.259699975,-0.1550.259749975,-0.1550.259799975,-0.1560.259849975,-0.1560.259899975,-0.1560.259949975,-0.1570.259999975,-0.1570.260049975,-0.1570.260099975,-0.1580.260149974,-0.1580.260199974,-0.1580.260249974,-0.1590.260299974,-0.1590.260349974,-0.1590.260399974,-0.1590.260449974,-0.1590.260499974,-0.1590.260549974,-0.1590.260599974,-0.1590.260649974,-0.1590.260699974,-0.1590.260749974,-0.1590.260799974,-0.1590.260849974,-0.160.260899974,-0.160.260949974,-0.160.260999974,-0.1610.261049974,-0.1620.261099974,-0.1620.261149974,-0.1630.261199974,-0.1640.261249974,-0.1640.261299974,-0.1650.261349974,-0.1650.261399974,-0.1650.261449974,-0.1660.261499974,-0.1660.261549974,-0.1660.261599974,-0.1670.261649974,-0.1670.261699974,-0.1680.261749974,-0.1680.261799974,-0.1680.261849974,-0.1680.261899974,-0.1680.261949974,-0.1690.261999974,-0.1690.262049974,-0.1690.262099974,-0.1690.262149974,-0.1690.262199974,-0.1690.262249974,-0.1690.262299974,-0.1690.262349974,-0.1690.262399974,-0.1680.262449974,-0.1680.262499974,-0.1680.262549974,-0.1680.262599974,-0.1690.262649974,-0.1690.262699974,-0.1690.262749974,-0.1690.262799974,-0.1690.262849974,-0.1690.262899974,-0.1690.262949974,-0.170.262999974,-0.170.263049974,-0.170.263099974,-0.170.263149974,-0.170.263199974,-0.170.263249974,-0.170.263299974,-0.170.263349974,-0.170.263399974,-0.170.263449974,-0.170.263499974,-0.1710.263549974,-0.1710.263599974,-0.1710.263649974,-0.1710.263699974,-0.1720.263749974,-0.1720.263799974,-0.1720.263849974,-0.1720.263899974,-0.1710.263949974,-0.1710.263999974,-0.1710.264049974,-0.1710.264099974,-0.170.264149974,-0.170.264199974,-0.170.264249974,-0.170.264299974,-0.170.264349974,-0.1690.264399974,-0.170.264449974,-0.1690.264499974,-0.1690.264549974,-0.1690.264599974,-0.1690.264649974,-0.1690.264699974,-0.1690.264749974,-0.1690.264799974,-0.1690.264849974,-0.1690.264899974,-0.1690.264949974,-0.1690.264999974,-0.1690.265049974,-0.1690.265099974,-0.1690.265149974,-0.1690.265199974,-0.1690.265249974,-0.1690.265299974,-0.1690.265349974,-0.1690.265399974,-0.1690.265449974,-0.1690.265499974,-0.1690.265549974,-0.1690.265599974,-0.1690.265649974,-0.1680.265699974,-0.1680.265749974,-0.1680.265799974,-0.1690.265849974,-0.1680.265899974,-0.1690.265949974,-0.1680.265999974,-0.1680.266049974,-0.1680.266099974,-0.1680.266149974,-0.1680.266199974,-0.1680.266249974,-0.1680.266299974,-0.1670.266349974,-0.1670.266399974,-0.1670.266449974,-0.1670.266499974,-0.1680.266549974,-0.1680.266599974,-0.1680.266649974,-0.1670.266699974,-0.1670.266749974,-0.1670.266799974,-0.1670.266849974,-0.1670.266899974,-0.1670.266949974,-0.1660.266999974,-0.1660.267049974,-0.1660.267099974,-0.1660.267149974,-0.1650.267199974,-0.1650.267249974,-0.1650.267299974,-0.1640.267349974,-0.1640.267399974,-0.1640.267449974,-0.1630.267499974,-0.1630.267549974,-0.1630.267599974,-0.1630.267649974,-0.1630.267699974,-0.1620.267749974,-0.1620.267799974,-0.1620.267849974,-0.1620.267899974,-0.1610.267949974,-0.1610.267999974,-0.1610.268049974,-0.1610.268099974,-0.160.268149974,-0.160.268199974,-0.160.268249974,-0.160.268299974,-0.160.268349974,-0.1590.268399974,-0.1590.268449974,-0.1590.268499974,-0.1580.268549974,-0.1580.268599974,-0.1570.268649974,-0.1570.268699974,-0.1560.268749974,-0.1550.268799974,-0.1550.268849974,-0.1540.268899974,-0.1540.268949974,-0.1540.268999974,-0.1530.269049974,-0.1530.269099974,-0.1530.269149974,-0.1530.269199974,-0.1530.269249974,-0.1520.269299974,-0.1520.269349974,-0.1510.269399974,-0.1510.269449974,-0.1510.269499974,-0.150.269549974,-0.150.269599974,-0.150.269649974,-0.150.269699974,-0.1490.269749974,-0.1490.269799974,-0.1490.269849974,-0.1490.269899974,-0.1480.269949974,-0.1480.269999974,-0.1470.270049974,-0.1470.270099974,-0.1470.270149974,-0.1470.270199974,-0.1470.270249974,-0.1470.270299974,-0.1470.270349973,-0.1470.270399973,-0.1470.270449973,-0.1470.270499973,-0.1480.270549973,-0.1480.270599973,-0.1480.270649973,-0.1480.270699973,-0.1480.270749973,-0.1480.270799973,-0.1490.270849973,-0.1480.270899973,-0.1490.270949973,-0.1490.270999973,-0.1490.271049973,-0.1490.271099973,-0.1490.271149973,-0.1490.271199973,-0.1490.271249973,-0.1480.271299973,-0.1480.271349973,-0.1480.271399973,-0.1480.271449973,-0.1480.271499973,-0.1480.271549973,-0.1480.271599973,-0.1480.271649973,-0.1480.271699973,-0.1480.271749973,-0.1490.271799973,-0.1490.271849973,-0.1490.271899973,-0.150.271949973,-0.150.271999973,-0.150.272049973,-0.150.272099973,-0.150.272149973,-0.150.272199973,-0.150.272249973,-0.1490.272299973,-0.1490.272349973,-0.1490.272399973,-0.1490.272449973,-0.1490.272499973,-0.1490.272549973,-0.1490.272599973,-0.1490.272649973,-0.1480.272699973,-0.1480.272749973,-0.1480.272799973,-0.1480.272849973,-0.1480.272899973,-0.1480.272949973,-0.1480.272999973,-0.1480.273049973,-0.1490.273099973,-0.1490.273149973,-0.1490.273199973,-0.1490.273249973,-0.1490.273299973,-0.1490.273349973,-0.1480.273399973,-0.1480.273449973,-0.1480.273499973,-0.1480.273549973,-0.1480.273599973,-0.1480.273649973,-0.1480.273699973,-0.1480.273749973,-0.1480.273799973,-0.1480.273849973,-0.1480.273899973,-0.1480.273949973,-0.1480.273999973,-0.1480.274049973,-0.1480.274099973,-0.1490.274149973,-0.1490.274199973,-0.150.274249973,-0.150.274299973,-0.1510.274349973,-0.1510.274399973,-0.1520.274449973,-0.1520.274499973,-0.1530.274549973,-0.1530.274599973,-0.1530.274649973,-0.1540.274699973,-0.1540.274749973,-0.1540.274799973,-0.1540.274849973,-0.1550.274899973,-0.1550.274949973,-0.1550.274999973,-0.1560.275049973,-0.1560.275099973,-0.1570.275149973,-0.1570.275199973,-0.1570.275249973,-0.1570.275299973,-0.1580.275349973,-0.1580.275399973,-0.1580.275449973,-0.1590.275499973,-0.1590.275549973,-0.1590.275599973,-0.160.275649973,-0.160.275699973,-0.160.275749973,-0.160.275799973,-0.160.275849973,-0.160.275899973,-0.160.275949973,-0.1610.275999973,-0.1610.276049973,-0.1610.276099973,-0.1620.276149973,-0.1620.276199973,-0.1620.276249973,-0.1630.276299973,-0.1630.276349973,-0.1630.276399973,-0.1630.276449973,-0.1640.276499973,-0.1640.276549973,-0.1640.276599973,-0.1640.276649973,-0.1650.276699973,-0.1650.276749973,-0.1650.276799973,-0.1660.276849973,-0.1660.276899973,-0.1670.276949973,-0.1670.276999973,-0.1680.277049973,-0.1680.277099973,-0.1690.277149973,-0.1690.277199973,-0.1690.277249973,-0.1690.277299973,-0.170.277349973,-0.170.277399973,-0.170.277449973,-0.170.277499973,-0.170.277549973,-0.1710.277599973,-0.1710.277649973,-0.1710.277699973,-0.1720.277749973,-0.1720.277799973,-0.1730.277849973,-0.1730.277899973,-0.1740.277949973,-0.1740.277999973,-0.1750.278049973,-0.1750.278099973,-0.1760.278149973,-0.1770.278199973,-0.1770.278249973,-0.1780.278299973,-0.1790.278349973,-0.1790.278399973,-0.1790.278449973,-0.1790.278499973,-0.1790.278549973,-0.1790.278599973,-0.1790.278649973,-0.180.278699973,-0.180.278749973,-0.180.278799973,-0.1810.278849973,-0.1820.278899973,-0.1820.278949973,-0.1830.278999973,-0.1830.279049973,-0.1830.279099973,-0.1840.279149973,-0.1840.279199973,-0.1850.279249973,-0.1850.279299973,-0.1850.279349973,-0.1850.279399973,-0.1850.279449973,-0.1860.279499973,-0.1860.279549973,-0.1860.279599973,-0.1860.279649973,-0.1860.279699973,-0.1860.279749973,-0.1860.279799973,-0.1870.279849973,-0.1870.279899973,-0.1870.279949973,-0.1870.279999973,-0.1870.280049973,-0.1870.280099973,-0.1880.280149973,-0.1880.280199973,-0.1880.280249973,-0.1890.280299973,-0.1890.280349973,-0.190.280399973,-0.190.280449973,-0.190.280499973,-0.190.280549973,-0.190.280599972,-0.190.280649972,-0.190.280699972,-0.190.280749972,-0.190.280799972,-0.190.280849972,-0.190.280899972,-0.190.280949972,-0.190.280999972,-0.190.281049972,-0.190.281099972,-0.1890.281149972,-0.1890.281199972,-0.1890.281249972,-0.1890.281299972,-0.190.281349972,-0.190.281399972,-0.190.281449972,-0.190.281499972,-0.190.281549972,-0.190.281599972,-0.190.281649972,-0.190.281699972,-0.190.281749972,-0.190.281799972,-0.190.281849972,-0.1890.281899972,-0.1890.281949972,-0.1890.281999972,-0.1890.282049972,-0.1890.282099972,-0.1890.282149972,-0.1890.282199972,-0.1890.282249972,-0.1890.282299972,-0.1890.282349972,-0.1890.282399972,-0.1890.282449972,-0.1880.282499972,-0.1880.282549972,-0.1880.282599972,-0.1880.282649972,-0.1880.282699972,-0.1880.282749972,-0.1890.282799972,-0.1890.282849972,-0.1890.282899972,-0.1890.282949972,-0.190.282999972,-0.190.283049972,-0.190.283099972,-0.1910.283149972,-0.1910.283199972,-0.1910.283249972,-0.1910.283299972,-0.1910.283349972,-0.1910.283399972,-0.1910.283449972,-0.1910.283499972,-0.190.283549972,-0.190.283599972,-0.1890.283649972,-0.1890.283699972,-0.1880.283749972,-0.1880.283799972,-0.1870.283849972,-0.1870.283899972,-0.1870.283949972,-0.1870.283999972,-0.1870.284049972,-0.1870.284099972,-0.1870.284149972,-0.1870.284199972,-0.1870.284249972,-0.1870.284299972,-0.1860.284349972,-0.1860.284399972,-0.1860.284449972,-0.1860.284499972,-0.1860.284549972,-0.1860.284599972,-0.1860.284649972,-0.1860.284699972,-0.1860.284749972,-0.1850.284799972,-0.1850.284849972,-0.1850.284899972,-0.1840.284949972,-0.1840.284999972,-0.1840.285049972,-0.1830.285099972,-0.1830.285149972,-0.1830.285199972,-0.1820.285249972,-0.1820.285299972,-0.1810.285349972,-0.1810.285399972,-0.1810.285449972,-0.180.285499972,-0.180.285549972,-0.180.285599972,-0.1790.285649972,-0.1790.285699972,-0.1790.285749972,-0.1790.285799972,-0.1780.285849972,-0.1780.285899972,-0.1780.285949972,-0.1780.285999972,-0.1780.286049972,-0.1780.286099972,-0.1780.286149972,-0.1780.286199972,-0.1780.286249972,-0.1780.286299972,-0.1780.286349972,-0.1780.286399972,-0.1780.286449972,-0.1780.286499972,-0.1780.286549972,-0.1780.286599972,-0.1780.286649972,-0.1780.286699972,-0.1780.286749972,-0.1790.286799972,-0.1790.286849972,-0.1790.286899972,-0.1790.286949972,-0.1790.286999972,-0.1790.287049972,-0.1790.287099972,-0.1790.287149972,-0.1790.287199972,-0.1790.287249972,-0.1790.287299972,-0.1790.287349972,-0.1790.287399972,-0.1790.287449972,-0.1790.287499972,-0.1790.287549972,-0.1790.287599972,-0.1790.287649972,-0.180.287699972,-0.180.287749972,-0.180.287799972,-0.180.287849972,-0.1810.287899972,-0.1810.287949972,-0.1810.287999972,-0.1810.288049972,-0.1810.288099972,-0.1820.288149972,-0.1820.288199972,-0.1820.288249972,-0.1820.288299972,-0.1830.288349972,-0.1830.288399972,-0.1830.288449972,-0.1830.288499972,-0.1830.288549972,-0.1830.288599972,-0.1830.288649972,-0.1840.288699972,-0.1840.288749972,-0.1840.288799972,-0.1840.288849972,-0.1840.288899972,-0.1850.288949972,-0.1850.288999972,-0.1850.289049972,-0.1850.289099972,-0.1860.289149972,-0.1860.289199972,-0.1870.289249972,-0.1870.289299972,-0.1880.289349972,-0.1880.289399972,-0.1890.289449972,-0.1890.289499972,-0.1890.289549972,-0.1890.289599972,-0.1890.289649972,-0.1890.289699972,-0.190.289749972,-0.190.289799972,-0.190.289849972,-0.190.289899972,-0.190.289949972,-0.190.289999972,-0.190.290049972,-0.190.290099972,-0.190.290149972,-0.1910.290199972,-0.1920.290249972,-0.1920.290299972,-0.1930.290349972,-0.1940.290399972,-0.1940.290449972,-0.1950.290499972,-0.1950.290549972,-0.1950.290599972,-0.1950.290649972,-0.1950.290699972,-0.1960.290749972,-0.1960.290799971,-0.1960.290849971,-0.1960.290899971,-0.1960.290949971,-0.1970.290999971,-0.1970.291049971,-0.1970.291099971,-0.1980.291149971,-0.1980.291199971,-0.1980.291249971,-0.1990.291299971,-0.1990.291349971,-0.20.291399971,-0.20.291449971,-0.2010.291499971,-0.2020.291549971,-0.2020.291599971,-0.2030.291649971,-0.2030.291699971,-0.2040.291749971,-0.2040.291799971,-0.2040.291849971,-0.2050.291899971,-0.2050.291949971,-0.2050.291999971,-0.2050.292049971,-0.2050.292099971,-0.2050.292149971,-0.2050.292199971,-0.2050.292249971,-0.2050.292299971,-0.2060.292349971,-0.2060.292399971,-0.2070.292449971,-0.2080.292499971,-0.2090.292549971,-0.2090.292599971,-0.210.292649971,-0.2110.292699971,-0.2120.292749971,-0.2120.292799971,-0.2130.292849971,-0.2140.292899971,-0.2140.292949971,-0.2150.292999971,-0.2150.293049971,-0.2150.293099971,-0.2160.293149971,-0.2160.293199971,-0.2160.293249971,-0.2160.293299971,-0.2170.293349971,-0.2170.293399971,-0.2180.293449971,-0.2180.293499971,-0.2190.293549971,-0.2190.293599971,-0.2190.293649971,-0.2190.293699971,-0.220.293749971,-0.220.293799971,-0.220.293849971,-0.220.293899971,-0.220.293949971,-0.2210.293999971,-0.2210.294049971,-0.2220.294099971,-0.2230.294149971,-0.2230.294199971,-0.2240.294249971,-0.2250.294299971,-0.2250.294349971,-0.2260.294399971,-0.2270.294449971,-0.2270.294499971,-0.2270.294549971,-0.2280.294599971,-0.2280.294649971,-0.2290.294699971,-0.2290.294749971,-0.2290.294799971,-0.230.294849971,-0.230.294899971,-0.2310.294949971,-0.2310.294999971,-0.2320.295049971,-0.2320.295099971,-0.2330.295149971,-0.2340.295199971,-0.2340.295249971,-0.2350.295299971,-0.2350.295349971,-0.2360.295399971,-0.2360.295449971,-0.2370.295499971,-0.2370.295549971,-0.2370.295599971,-0.2380.295649971,-0.2380.295699971,-0.2380.295749971,-0.2380.295799971,-0.2380.295849971,-0.2380.295899971,-0.2380.295949971,-0.2380.295999971,-0.2390.296049971,-0.2390.296099971,-0.2390.296149971,-0.2390.296199971,-0.240.296249971,-0.240.296299971,-0.240.296349971,-0.240.296399971,-0.240.296449971,-0.240.296499971,-0.2410.296549971,-0.2410.296599971,-0.2420.296649971,-0.2420.296699971,-0.2420.296749971,-0.2420.296799971,-0.2430.296849971,-0.2430.296899971,-0.2430.296949971,-0.2430.296999971,-0.2430.297049971,-0.2440.297099971,-0.2440.297149971,-0.2440.297199971,-0.2450.297249971,-0.2450.297299971,-0.2450.297349971,-0.2450.297399971,-0.2460.297449971,-0.2460.297499971,-0.2470.297549971,-0.2470.297599971,-0.2470.297649971,-0.2480.297699971,-0.2480.297749971,-0.2480.297799971,-0.2480.297849971,-0.2480.297899971,-0.2480.297949971,-0.2480.297999971,-0.2480.298049971,-0.2480.298099971,-0.2490.298149971,-0.2490.298199971,-0.2490.298249971,-0.2490.298299971,-0.2490.298349971,-0.250.298399971,-0.250.298449971,-0.250.298499971,-0.250.298549971,-0.250.298599971,-0.250.298649971,-0.250.298699971,-0.250.298749971,-0.250.298799971,-0.250.298849971,-0.250.298899971,-0.250.298949971,-0.2490.298999971,-0.2490.299049971,-0.2490.299099971,-0.2480.299149971,-0.2480.299199971,-0.2480.299249971,-0.2480.299299971,-0.2480.299349971,-0.2480.299399971,-0.2480.299449971,-0.2480.299499971,-0.2480.299549971,-0.2490.299599971,-0.2490.299649971,-0.2490.299699971,-0.2490.299749971,-0.250.299799971,-0.250.299849971,-0.250.299899971,-0.250.299949971,-0.250.299999971,-0.250.300049971,-0.250.300099971,-0.250.300149971,-0.250.300199971,-0.250.300249971,-0.250.300299971,-0.250.300349971,-0.250.300399971,-0.250.300449971,-0.250.300499971,-0.2490.300549971,-0.250.300599971,-0.2490.300649971,-0.2490.300699971,-0.2490.300749971,-0.2490.300799971,-0.2490.300849971,-0.2490.300899971,-0.2490.300949971,-0.2490.30099997,-0.2490.30104997,-0.2490.30109997,-0.2490.30114997,-0.2490.30119997,-0.2490.30124997,-0.2490.30129997,-0.2490.30134997,-0.2490.30139997,-0.2490.30144997,-0.2490.30149997,-0.2490.30154997,-0.2490.30159997,-0.2490.30164997,-0.2490.30169997,-0.2480.30174997,-0.2480.30179997,-0.2480.30184997,-0.2480.30189997,-0.2480.30194997,-0.2480.30199997,-0.2480.30204997,-0.2480.30209997,-0.2480.30214997,-0.2480.30219997,-0.2480.30224997,-0.2470.30229997,-0.2470.30234997,-0.2470.30239997,-0.2470.30244997,-0.2470.30249997,-0.2470.30254997,-0.2460.30259997,-0.2460.30264997,-0.2460.30269997,-0.2470.30274997,-0.2470.30279997,-0.2470.30284997,-0.2470.30289997,-0.2470.30294997,-0.2470.30299997,-0.2470.30304997,-0.2470.30309997,-0.2470.30314997,-0.2470.30319997,-0.2470.30324997,-0.2470.30329997,-0.2470.30334997,-0.2470.30339997,-0.2470.30344997,-0.2470.30349997,-0.2480.30354997,-0.2480.30359997,-0.2480.30364997,-0.2480.30369997,-0.2480.30374997,-0.2490.30379997,-0.2490.30384997,-0.250.30389997,-0.250.30394997,-0.250.30399997,-0.2510.30404997,-0.2520.30409997,-0.2520.30414997,-0.2530.30419997,-0.2530.30424997,-0.2530.30429997,-0.2540.30434997,-0.2540.30439997,-0.2540.30444997,-0.2550.30449997,-0.2550.30454997,-0.2550.30459997,-0.2560.30464997,-0.2570.30469997,-0.2570.30474997,-0.2580.30479997,-0.2580.30484997,-0.2590.30489997,-0.2590.30494997,-0.260.30499997,-0.260.30504997,-0.260.30509997,-0.260.30514997,-0.260.30519997,-0.260.30524997,-0.260.30529997,-0.2610.30534997,-0.2610.30539997,-0.2610.30544997,-0.2610.30549997,-0.2620.30554997,-0.2620.30559997,-0.2630.30564997,-0.2630.30569997,-0.2640.30574997,-0.2640.30579997,-0.2650.30584997,-0.2650.30589997,-0.2650.30594997,-0.2660.30599997,-0.2660.30604997,-0.2670.30609997,-0.2670.30614997,-0.2670.30619997,-0.2680.30624997,-0.2680.30629997,-0.2680.30634997,-0.2680.30639997,-0.2680.30644997,-0.2690.30649997,-0.270.30654997,-0.270.30659997,-0.2710.30664997,-0.2710.30669997,-0.2720.30674997,-0.2720.30679997,-0.2730.30684997,-0.2730.30689997,-0.2740.30694997,-0.2740.30699997,-0.2750.30704997,-0.2750.30709997,-0.2760.30714997,-0.2770.30719997,-0.2770.30724997,-0.2780.30729997,-0.2780.30734997,-0.2790.30739997,-0.2790.30744997,-0.2790.30749997,-0.280.30754997,-0.280.30759997,-0.2810.30764997,-0.2810.30769997,-0.2820.30774997,-0.2820.30779997,-0.2830.30784997,-0.2830.30789997,-0.2840.30794997,-0.2840.30799997,-0.2840.30804997,-0.2840.30809997,-0.2850.30814997,-0.2850.30819997,-0.2850.30824997,-0.2860.30829997,-0.2860.30834997,-0.2870.30839997,-0.2870.30844997,-0.2880.30849997,-0.2880.30854997,-0.2890.30859997,-0.2890.30864997,-0.290.30869997,-0.290.30874997,-0.2910.30879997,-0.2920.30884997,-0.2920.30889997,-0.2930.30894997,-0.2930.30899997,-0.2940.30904997,-0.2950.30909997,-0.2960.30914997,-0.2960.30919997,-0.2970.30924997,-0.2980.30929997,-0.2980.30934997,-0.2990.30939997,-0.2990.30944997,-0.30.30949997,-0.30.30954997,-0.3010.30959997,-0.3020.30964997,-0.3020.30969997,-0.3030.30974997,-0.3040.30979997,-0.3050.30984997,-0.3050.30989997,-0.3060.30994997,-0.3060.30999997,-0.3070.31004997,-0.3070.31009997,-0.3080.31014997,-0.3080.31019997,-0.3090.31024997,-0.3090.31029997,-0.310.31034997,-0.310.31039997,-0.3110.31044997,-0.3120.31049997,-0.3120.31054997,-0.3130.31059997,-0.3130.31064997,-0.3130.31069997,-0.3140.31074997,-0.3140.31079997,-0.3140.31084997,-0.3140.31089997,-0.3140.31094997,-0.3150.31099997,-0.3150.31104997,-0.3150.31109997,-0.3160.31114997,-0.3160.311199969,-0.3170.311249969,-0.3180.311299969,-0.3180.311349969,-0.3190.311399969,-0.320.311449969,-0.320.311499969,-0.3210.311549969,-0.3220.311599969,-0.3220.311649969,-0.3230.311699969,-0.3230.311749969,-0.3230.311799969,-0.3240.311849969,-0.3250.311899969,-0.3250.311949969,-0.3260.311999969,-0.3270.312049969,-0.3270.312099969,-0.3280.312149969,-0.3290.312199969,-0.3290.312249969,-0.330.312299969,-0.330.312349969,-0.330.312399969,-0.3310.312449969,-0.3310.312499969,-0.3320.312549969,-0.3320.312599969,-0.3320.312649969,-0.3330.312699969,-0.3330.312749969,-0.3330.312799969,-0.3330.312849969,-0.3330.312899969,-0.3330.312949969,-0.3340.312999969,-0.3340.313049969,-0.3340.313099969,-0.3340.313149969,-0.3350.313199969,-0.3350.313249969,-0.3350.313299969,-0.3350.313349969,-0.3350.313399969,-0.3350.313449969,-0.3360.313499969,-0.3360.313549969,-0.3360.313599969,-0.3370.313649969,-0.3370.313699969,-0.3370.313749969,-0.3380.313799969,-0.3380.313849969,-0.3380.313899969,-0.3380.313949969,-0.3380.313999969,-0.3380.314049969,-0.3380.314099969,-0.3380.314149969,-0.3380.314199969,-0.3390.314249969,-0.3390.314299969,-0.3390.314349969,-0.340.314399969,-0.340.314449969,-0.340.314499969,-0.340.314549969,-0.3410.314599969,-0.3410.314649969,-0.3420.314699969,-0.3420.314749969,-0.3420.314799969,-0.3430.314849969,-0.3430.314899969,-0.3430.314949969,-0.3430.314999969,-0.3430.315049969,-0.3430.315099969,-0.3430.315149969,-0.3430.315199969,-0.3430.315249969,-0.3430.315299969,-0.3430.315349969,-0.3430.315399969,-0.3430.315449969,-0.3420.315499969,-0.3420.315549969,-0.3420.315599969,-0.3420.315649969,-0.3420.315699969,-0.3420.315749969,-0.3420.315799969,-0.3420.315849969,-0.3420.315899969,-0.3420.315949969,-0.3420.315999969,-0.3420.316049969,-0.3420.316099969,-0.3410.316149969,-0.3420.316199969,-0.3420.316249969,-0.3420.316299969,-0.3420.316349969,-0.3420.316399969,-0.3420.316449969,-0.3420.316499969,-0.3420.316549969,-0.3410.316599969,-0.3410.316649969,-0.3410.316699969,-0.340.316749969,-0.340.316799969,-0.340.316849969,-0.340.316899969,-0.340.316949969,-0.340.316999969,-0.3390.317049969,-0.3390.317099969,-0.3390.317149969,-0.3390.317199969,-0.3390.317249969,-0.3380.317299969,-0.3380.317349969,-0.3380.317399969,-0.3370.317449969,-0.3370.317499969,-0.3370.317549969,-0.3360.317599969,-0.3360.317649969,-0.3360.317699969,-0.3360.317749969,-0.3350.317799969,-0.3350.317849969,-0.3350.317899969,-0.3350.317949969,-0.3350.317999969,-0.3350.318049969,-0.3340.318099969,-0.3340.318149969,-0.3340.318199969,-0.3330.318249969,-0.3330.318299969,-0.3320.318349969,-0.3310.318399969,-0.3310.318449969,-0.330.318499969,-0.330.318549969,-0.3290.318599969,-0.3290.318649969,-0.3280.318699969,-0.3280.318749969,-0.3280.318799969,-0.3280.318849969,-0.3280.318899969,-0.3280.318949969,-0.3280.318999969,-0.3270.319049969,-0.3270.319099969,-0.3270.319149969,-0.3260.319199969,-0.3260.319249969,-0.3250.319299969,-0.3250.319349969,-0.3250.319399969,-0.3240.319449969,-0.3240.319499969,-0.3240.319549969,-0.3240.319599969,-0.3240.319649969,-0.3240.319699969,-0.3240.319749969,-0.3240.319799969,-0.3240.319849969,-0.3240.319899969,-0.3230.319949969,-0.3230.319999969,-0.3230.320049969,-0.3230.320099969,-0.3230.320149969,-0.3230.320199969,-0.3220.320249969,-0.3220.320299969,-0.3220.320349969,-0.3220.320399969,-0.3220.320449969,-0.3220.320499969,-0.3220.320549969,-0.3220.320599969,-0.3220.320649969,-0.3220.320699969,-0.3220.320749969,-0.3220.320799969,-0.3220.320849969,-0.3230.320899969,-0.3230.320949969,-0.3230.320999969,-0.3230.321049969,-0.3230.321099969,-0.3230.321149969,-0.3230.321199969,-0.3230.321249969,-0.3230.321299969,-0.3230.321349969,-0.3230.321399968,-0.3230.321449968,-0.3230.321499968,-0.3230.321549968,-0.3230.321599968,-0.3230.321649968,-0.3230.321699968,-0.3230.321749968,-0.3230.321799968,-0.3230.321849968,-0.3230.321899968,-0.3230.321949968,-0.3230.321999968,-0.3230.322049968,-0.3230.322099968,-0.3230.322149968,-0.3230.322199968,-0.3230.322249968,-0.3240.322299968,-0.3240.322349968,-0.3240.322399968,-0.3240.322449968,-0.3250.322499968,-0.3250.322549968,-0.3250.322599968,-0.3240.322649968,-0.3240.322699968,-0.3240.322749968,-0.3240.322799968,-0.3240.322849968,-0.3240.322899968,-0.3240.322949968,-0.3240.322999968,-0.3240.323049968,-0.3240.323099968,-0.3240.323149968,-0.3240.323199968,-0.3230.323249968,-0.3230.323299968,-0.3230.323349968,-0.3230.323399968,-0.3230.323449968,-0.3230.323499968,-0.3230.323549968,-0.3230.323599968,-0.3230.323649968,-0.3230.323699968,-0.3240.323749968,-0.3240.323799968,-0.3240.323849968,-0.3240.323899968,-0.3240.323949968,-0.3230.323999968,-0.3230.324049968,-0.3230.324099968,-0.3230.324149968,-0.3230.324199968,-0.3230.324249968,-0.3220.324299968,-0.3220.324349968,-0.3220.324399968,-0.3220.324449968,-0.3220.324499968,-0.3220.324549968,-0.3220.324599968,-0.3210.324649968,-0.3210.324699968,-0.3210.324749968,-0.320.324799968,-0.320.324849968,-0.320.324899968,-0.320.324949968,-0.3210.324999968,-0.3210.325049968,-0.3210.325099968,-0.3210.325149968,-0.3210.325199968,-0.3210.325249968,-0.3210.325299968,-0.3210.325349968,-0.3210.325399968,-0.3210.325449968,-0.320.325499968,-0.320.325549968,-0.320.325599968,-0.320.325649968,-0.320.325699968,-0.320.325749968,-0.3210.325799968,-0.3210.325849968,-0.3210.325899968,-0.3210.325949968,-0.3210.325999968,-0.3220.326049968,-0.3220.326099968,-0.3220.326149968,-0.3220.326199968,-0.3220.326249968,-0.3220.326299968,-0.3220.326349968,-0.3220.326399968,-0.3220.326449968,-0.3220.326499968,-0.3220.326549968,-0.3220.326599968,-0.3220.326649968,-0.3220.326699968,-0.3210.326749968,-0.3210.326799968,-0.3210.326849968,-0.320.326899968,-0.320.326949968,-0.3190.326999968,-0.3190.327049968,-0.3190.327099968,-0.3190.327149968,-0.3190.327199968,